EC-Lab ASCII FILE
Nb header lines : 61                          

Linear Sweep Voltammetry

Run on channel : 2 (SN 77481)
User : 
CE vs. WE compliance from -10 V to 10 V
Electrode connection : standard
Potential control : Ewe
Ewe ctrl range : min = -2.50 V, max = 2.50 V
Safety Limits :
	Do not start on E overload
Acquisition started on : 03/02/2026 15:03:39.394
Technique started on : 03/02/2026 15:03:39.394
Loaded Setting File :  NONE
Saved on :
	File : Pt in acid_C02.mpr
	Directory : D:\Dr. Kiran V\CE-II 2026\group F\020326\pH study\
	Host : 192.109.209.127
Device : SP-150e (SN .003673)
Address : 192.109.209.128
EC-LAB for windows v11.60 (software)
Internet server v11.60 (firmware)
Command interpretor v11.60 (firmware)
Electrode material : Au/Pd
Initial state : 
Electrolyte : NaCl (0.2M)
Comments : Fe(CN)63-/Fe(CN)64- 5.10-3 M
Reference electrode : SCE Saturated Calomel Electrode (0.241 V)
Electrode surface area : 0.001 cm²
Characteristic mass : 0.001 g
Equivalent Weight : 0.000 g/eq.
Density : 0.000 g/cm3
Volume (V) : 0.001 cm³
Cycle Definition : Charge/Discharge alternance
tR (h:m:s)          0:00:5.0000         
dER/dt (mV/h)       0.0                 
dER (mV)            0                   
dtR (s)             0.0000              
dE/dt               5.000               
dE/dt unit          mV/s                
Ei (V)              0.200               
vs.                 Ref                 
EL (V)              -0.500              
vs.                 Ref                 
record              <I>                 
dI                  0.000               
unit dI             µA                  
tI (s)              0.0000              
step percent        50                  
N                   10                  
E range min (V)     -2.500              
E range max (V)     2.500               
I Range             Auto                
I Range min         Unset               
I Range max         Unset               
I Range init        Unset               
Bandwidth           5                   

mode	ox/red	error	control changes	time/s	control/V	Ewe/V	<I>/mA	(Q-Qo)/C	I Range	Pwe/W	Rwe/Ohm	
3	0	0	1	0.000000000000000E+000	0.0000000E+000	2.5512964E-001	0.000000000000000E+000	0.0000000E+000	14	0.0000000E+000	0.0000000E+000
3	0	0	0	4.999799873694428E+000	2.0003152E-001	4.9135944E-001	0.000000000000000E+000	0.0000000E+000	14	0.0000000E+000	0.0000000E+000
2	0	0	1	5.039799872683943E+000	1.9988166E-001	1.9922061E-001	-8.719929049209685E-002	-1.5647141E-006	13	-1.7371896E-005	2.2846587E+003
2	0	0	1	5.179799869147246E+000	1.9918162E-001	1.9903372E-001	-3.876185882122046E-002	-7.4639215E-006	13	-7.7149170E-006	5.1347827E+003
2	0	0	1	5.409799863336957E+000	1.9803162E-001	1.9769508E-001	-2.613330517458357E-002	-1.4842873E-005	13	-5.1664256E-006	7.5648706E+003
2	0	0	1	5.609799858284532E+000	1.9703165E-001	1.9668590E-001	-2.313007023834879E-002	-1.9644134E-005	13	-4.5493584E-006	8.5034717E+003
2	0	0	1	5.809799853232107E+000	1.9603164E-001	1.9570741E-001	-2.152731048976453E-002	-2.4001740E-005	13	-4.2130541E-006	9.0911221E+003
2	0	0	1	6.009799848179682E+000	1.9503170E-001	1.9470033E-001	-2.024415695668639E-002	-2.8095852E-005	13	-3.9415440E-006	9.6176064E+003
2	0	0	1	6.209799843127257E+000	1.9403173E-001	1.9374943E-001	-1.974931674232794E-002	-3.2022490E-005	13	-3.8264188E-006	9.8104365E+003
2	0	0	1	6.409799838074832E+000	1.9303176E-001	1.9257274E-001	-1.920960811225497E-002	-3.5828023E-005	13	-3.6992469E-006	1.0024813E+004
2	0	0	1	6.609799833022407E+000	1.9203176E-001	1.9183175E-001	-1.878372712291521E-002	-3.9536601E-005	13	-3.6033152E-006	1.0212656E+004
2	0	0	1	6.829799827464740E+000	1.9093178E-001	1.9053496E-001	-1.807554514779747E-002	-4.3423246E-005	13	-3.4440234E-006	1.0541035E+004
2	0	0	1	7.049799821907072E+000	1.8983181E-001	1.8960132E-001	-1.844785753197699E-002	-4.7038138E-005	12	-3.4977381E-006	1.0277688E+004
2	0	0	1	7.279799816096784E+000	1.8868184E-001	1.8840291E-001	-1.731391858869658E-002	-5.0854294E-005	12	-3.2619926E-006	1.0881587E+004
2	0	0	1	7.539799809528631E+000	1.8738189E-001	1.8720712E-001	-1.463236218102304E-002	-5.5303604E-005	12	-2.7392823E-006	1.2794046E+004
2	0	0	1	7.779799803465721E+000	1.8618192E-001	1.8582435E-001	-1.657558440596672E-002	-5.9391255E-005	12	-3.0801473E-006	1.1210727E+004
2	0	0	1	7.989799798160675E+000	1.8513192E-001	1.8482138E-001	-1.676497400776315E-002	-6.2955565E-005	13	-3.0985257E-006	1.1024257E+004
2	0	0	1	8.189799793108250E+000	1.8413195E-001	1.8380477E-001	-1.484116038088504E-002	-6.6181849E-005	13	-2.7278761E-006	1.2384798E+004
2	0	0	1	8.389799788055825E+000	1.8313198E-001	1.8273938E-001	-1.594559412160279E-002	-6.9283160E-005	13	-2.9138880E-006	1.1460180E+004
2	0	0	1	8.589799783003400E+000	1.8213199E-001	1.8174079E-001	-1.694907629445343E-002	-7.2575014E-005	13	-3.0803385E-006	1.0722755E+004
2	0	0	1	8.789799777950975E+000	1.8113202E-001	1.8080048E-001	-1.576655891817902E-002	-7.5779913E-005	13	-2.8506015E-006	1.1467340E+004
2	0	0	1	8.989799772898550E+000	1.8013205E-001	1.7966723E-001	-1.627515385174472E-002	-7.8949342E-005	13	-2.9241119E-006	1.1039357E+004
2	0	0	1	9.189799767846125E+000	1.7913206E-001	1.7882447E-001	-1.521742867903525E-002	-8.2116865E-005	13	-2.7212486E-006	1.1751293E+004
2	0	0	1	9.389799762793700E+000	1.7813209E-001	1.7787357E-001	-1.549834894851088E-002	-8.5181251E-005	13	-2.7567467E-006	1.1476937E+004
2	0	0	1	9.589799757741275E+000	1.7713208E-001	1.7681350E-001	-1.545361919426777E-002	-8.8297362E-005	13	-2.7324086E-006	1.1441560E+004
2	0	0	1	9.789799752688850E+000	1.7613211E-001	1.7586365E-001	-1.543497613220968E-002	-9.1408307E-005	13	-2.7144513E-006	1.1393840E+004
2	0	0	1	9.989799747636425E+000	1.7513216E-001	1.7474739E-001	-1.547939691768090E-002	-9.4516145E-005	13	-2.7049844E-006	1.1289031E+004
2	0	0	1	1.018979974258400E+001	1.7413218E-001	1.7386220E-001	-1.538738822514321E-002	-9.7617245E-005	13	-2.6752853E-006	1.1299007E+004
2	0	0	1	1.038979973753158E+001	1.7313220E-001	1.7284665E-001	-1.543255203787369E-002	-1.0070750E-004	13	-2.6674647E-006	1.1200134E+004
2	0	0	1	1.058979973247915E+001	1.7213222E-001	1.7155759E-001	-1.564339890032310E-002	-1.0383326E-004	13	-2.6837438E-006	1.0966772E+004
2	0	0	1	1.078979972742673E+001	1.7113224E-001	1.7101587E-001	-1.510185777878101E-002	-1.0693931E-004	13	-2.5826573E-006	1.1324161E+004
2	0	0	1	1.098979972237430E+001	1.7013226E-001	1.6971090E-001	-1.599349251097222E-002	-1.1003503E-004	13	-2.7142701E-006	1.0611247E+004
2	0	0	1	1.118979971732188E+001	1.6913229E-001	1.6879287E-001	-1.456069544379018E-002	-1.1309845E-004	13	-2.4577416E-006	1.1592363E+004
2	0	0	1	1.138979971226945E+001	1.6813232E-001	1.6789180E-001	-1.528769473428052E-002	-1.1612408E-004	13	-2.5666786E-006	1.0982153E+004
2	0	0	1	1.158979970721703E+001	1.6713233E-001	1.6682324E-001	-1.662967312205133E-002	-1.1930433E-004	13	-2.7742160E-006	1.0031661E+004
2	0	0	1	1.178979970216460E+001	1.6613236E-001	1.6580132E-001	-1.593886871646361E-002	-1.2247729E-004	13	-2.6426853E-006	1.0402326E+004
2	0	0	1	1.198979969711218E+001	1.6513239E-001	1.6478151E-001	-1.526108529977388E-002	-1.2547513E-004	13	-2.5147447E-006	1.0797496E+004
2	0	0	1	1.218979969205975E+001	1.6413240E-001	1.6380303E-001	-1.472728773241420E-002	-1.2840907E-004	13	-2.4123742E-006	1.1122416E+004
2	0	0	1	1.238979968700733E+001	1.6313243E-001	1.6274613E-001	-1.504132554688456E-002	-1.3142404E-004	13	-2.4479175E-006	1.0819933E+004
2	0	0	1	1.258969968195743E+001	1.6213246E-001	1.6178988E-001	-1.473965247006995E-002	-1.3443238E-004	13	-2.3847265E-006	1.0976506E+004
2	0	0	0	1.278959967690753E+001	1.6113247E-001	1.6080618E-001	-1.489929237525461E-002	-1.3741829E-004	13	-2.3958983E-006	1.0792874E+004
2	0	0	0	1.298959967185510E+001	1.6013250E-001	1.5987965E-001	-1.493843371690570E-002	-1.4042298E-004	13	-2.3883517E-006	1.0702571E+004
2	0	0	0	1.318959966680268E+001	1.5913253E-001	1.5891710E-001	-1.500780105233390E-002	-1.4343484E-004	13	-2.3849962E-006	1.0588966E+004
2	0	0	0	1.338959966175025E+001	1.5813254E-001	1.5768421E-001	-1.512039430286889E-002	-1.4645301E-004	13	-2.3842474E-006	1.0428578E+004
2	0	0	0	1.358959965669783E+001	1.5713257E-001	1.5677254E-001	-1.475402875829808E-002	-1.4943903E-004	13	-2.3130265E-006	1.0625744E+004
2	0	0	0	1.378959965164540E+001	1.5613259E-001	1.5585558E-001	-1.469531939037633E-002	-1.5242586E-004	13	-2.2903475E-006	1.0605798E+004
2	0	0	0	1.398959964659298E+001	1.5513261E-001	1.5482622E-001	-1.477632246837091E-002	-1.5540645E-004	13	-2.2877623E-006	1.0477994E+004
2	0	0	0	1.418959964154055E+001	1.5413262E-001	1.5391244E-001	-1.478474192485497E-002	-1.5838747E-004	13	-2.2755557E-006	1.0410222E+004
2	0	0	0	1.438959963648813E+001	1.5313265E-001	1.5292655E-001	-1.501643015591791E-002	-1.6138238E-004	13	-2.2964109E-006	1.0183948E+004
2	0	0	0	1.458959963143570E+001	1.5213268E-001	1.5187496E-001	-1.602121124024530E-002	-1.6447343E-004	13	-2.4332207E-006	9.4796182E+003
2	0	0	0	1.478959962638328E+001	1.5113270E-001	1.5105338E-001	-1.439241383857218E-002	-1.6748364E-004	13	-2.1740227E-006	1.0495348E+004
2	0	0	0	1.498959962133085E+001	1.5013272E-001	1.4958304E-001	-1.506445231127324E-002	-1.7040294E-004	13	-2.2533866E-006	9.9295371E+003
2	0	0	0	1.518959961627843E+001	1.4913274E-001	1.4895971E-001	-1.473053864756696E-002	-1.7336723E-004	13	-2.1942567E-006	1.0112306E+004
2	0	0	0	1.538959961122600E+001	1.4813277E-001	1.4796428E-001	-1.467953336754044E-002	-1.7630652E-004	13	-2.1720466E-006	1.0079631E+004
2	0	0	0	1.558959960617358E+001	1.4713280E-001	1.4666462E-001	-1.469642559648227E-002	-1.7925384E-004	13	-2.1554456E-006	9.9796113E+003
2	0	0	0	1.578959960112115E+001	1.4613283E-001	1.4590243E-001	-1.470247970811092E-002	-1.8220754E-004	13	-2.1451274E-006	9.9236611E+003
2	0	0	0	1.598959959606873E+001	1.4513284E-001	1.4479463E-001	-1.472307922098948E-002	-1.8516171E-004	13	-2.1318228E-006	9.8345342E+003
2	0	0	0	1.618959959101630E+001	1.4413285E-001	1.4387131E-001	-1.453956829047665E-002	-1.8810130E-004	13	-2.0918267E-006	9.8951572E+003
2	0	0	0	1.638959958596388E+001	1.4313288E-001	1.4281969E-001	-1.482104191339062E-002	-1.9105824E-004	13	-2.1167366E-006	9.6362783E+003
2	0	0	0	1.658959958091145E+001	1.4213291E-001	1.4186242E-001	-1.492689383522945E-002	-1.9403898E-004	13	-2.1175654E-006	9.5038145E+003
2	0	0	0	1.678959957585903E+001	1.4113294E-001	1.4102708E-001	-1.472481202411779E-002	-1.9700710E-004	13	-2.0765972E-006	9.5775127E+003
2	0	0	0	1.698959957080660E+001	1.4013296E-001	1.3974120E-001	-1.443984994098282E-002	-1.9991225E-004	13	-2.0178420E-006	9.6774688E+003
2	0	0	0	1.718959956575418E+001	1.3913298E-001	1.3881043E-001	-1.452203152124198E-002	-2.0283730E-004	13	-2.0158093E-006	9.5586094E+003
2	0	0	0	1.738959956070175E+001	1.3813299E-001	1.3786592E-001	-1.458272867405241E-002	-2.0576577E-004	13	-2.0104612E-006	9.4540547E+003
2	0	0	0	1.758959955564933E+001	1.3713300E-001	1.3688639E-001	-1.459368254871651E-002	-2.0869821E-004	13	-1.9976765E-006	9.3798389E+003
2	0	0	0	1.778959955059690E+001	1.3613303E-001	1.3584536E-001	-1.446627764519115E-002	-2.1162136E-004	13	-1.9651768E-006	9.3904854E+003
2	0	0	0	1.798959954554448E+001	1.3513306E-001	1.3483298E-001	-1.451075701185561E-002	-2.1454399E-004	13	-1.9565286E-006	9.2919326E+003
2	0	0	0	1.818959954049205E+001	1.3413309E-001	1.3383120E-001	-1.450430088195542E-002	-2.1746664E-004	13	-1.9411279E-006	9.2270010E+003
2	0	0	0	1.838959953543963E+001	1.3313310E-001	1.3285062E-001	-1.449486481468243E-002	-2.2038900E-004	13	-1.9256518E-006	9.1653574E+003
2	0	0	0	1.858959953038720E+001	1.3213313E-001	1.3183083E-001	-1.448641226404132E-002	-2.2330949E-004	13	-1.9097556E-006	9.1003086E+003
2	0	0	0	1.878959952533478E+001	1.3113314E-001	1.3088416E-001	-1.448143057814477E-002	-2.2622869E-004	13	-1.8953898E-006	9.0380684E+003
2	0	0	0	1.898959952028235E+001	1.3013317E-001	1.2985164E-001	-1.446990515295493E-002	-2.2914661E-004	13	-1.8789409E-006	8.9739111E+003
2	0	0	0	1.918959951522993E+001	1.2913321E-001	1.2884244E-001	-1.446596575547707E-002	-2.3206256E-004	13	-1.8638303E-006	8.9065908E+003
2	0	0	0	1.938959951017750E+001	1.2813324E-001	1.2783004E-001	-1.446261187889156E-002	-2.3497790E-004	13	-1.8487563E-006	8.8386553E+003
2	0	0	0	1.958959950512508E+001	1.2713325E-001	1.2681979E-001	-1.447449588043148E-002	-2.3789414E-004	13	-1.8356525E-006	8.7616035E+003
2	0	0	0	1.978959950007265E+001	1.2613326E-001	1.2583922E-001	-1.443879679690145E-002	-2.4080747E-004	13	-1.8169669E-006	8.7153535E+003
2	0	0	0	1.998959949502023E+001	1.2513329E-001	1.2481092E-001	-1.444075588211347E-002	-2.4371862E-004	13	-1.8023641E-006	8.6429629E+003
2	0	0	0	2.018959948996780E+001	1.2413332E-001	1.2383247E-001	-1.444703963484362E-002	-2.4663258E-004	13	-1.7890126E-006	8.5714775E+003
2	0	0	0	2.038959948491538E+001	1.2313334E-001	1.2275224E-001	-1.444609991571488E-002	-2.4954622E-004	13	-1.7732912E-006	8.4972578E+003
2	0	0	0	2.058959947986295E+001	1.2213337E-001	1.2182573E-001	-1.443550632324154E-002	-2.5245480E-004	13	-1.7586161E-006	8.4393115E+003
2	0	0	0	2.078959947481053E+001	1.2113338E-001	1.2086210E-001	-1.444175343827481E-002	-2.5536382E-004	13	-1.7454606E-006	8.3689346E+003
2	0	0	0	2.098959946975810E+001	1.2013341E-001	1.1986245E-001	-1.440155965129820E-002	-2.5827248E-004	13	-1.7262063E-006	8.3228799E+003
2	0	0	0	2.118959946470568E+001	1.1913343E-001	1.1889564E-001	-1.440611500158386E-002	-2.6117649E-004	13	-1.7128243E-006	8.2531367E+003
2	0	0	1	2.138949945965578E+001	1.1813391E-001	1.1780845E-001	-1.440139074585062E-002	-2.6407940E-004	13	-1.6966055E-006	8.1803521E+003
2	0	0	1	2.158939945460588E+001	1.1713348E-001	1.1680621E-001	-1.439746623172988E-002	-2.6698210E-004	13	-1.6817135E-006	8.1129697E+003
2	0	0	1	2.178939944955346E+001	1.1613350E-001	1.1584789E-001	-1.439332183676956E-002	-2.6988587E-004	13	-1.6674360E-006	8.0487251E+003
2	0	0	1	2.198939944450103E+001	1.1513352E-001	1.1483657E-001	-1.439308447015207E-002	-2.7278916E-004	13	-1.6528523E-006	7.9785933E+003
2	0	0	1	2.218939943944861E+001	1.1413353E-001	1.1382100E-001	-1.439488470388570E-002	-2.7569180E-004	13	-1.6384402E-006	7.9070449E+003
2	0	0	1	2.238939943439618E+001	1.1313356E-001	1.1284466E-001	-1.439156339706038E-002	-2.7859423E-004	13	-1.6240111E-006	7.8410288E+003
2	0	0	1	2.258939942934376E+001	1.1213358E-001	1.1182698E-001	-1.438530475625041E-002	-2.8149632E-004	13	-1.6086651E-006	7.7736953E+003
2	0	0	1	2.278939942429133E+001	1.1113362E-001	1.1085064E-001	-1.439274875410199E-002	-2.8439835E-004	13	-1.5954454E-006	7.7018394E+003
2	0	0	1	2.298939941923891E+001	1.1013365E-001	1.0979692E-001	-1.439309938292839E-002	-2.8730024E-004	13	-1.5803180E-006	7.6284419E+003
2	0	0	1	2.318939941418648E+001	1.0913366E-001	1.0886934E-001	-1.438132629008079E-002	-2.9020137E-004	13	-1.5656856E-006	7.5701880E+003
2	0	0	1	2.338939940913406E+001	1.0813368E-001	1.0781562E-001	-1.438673074019839E-002	-2.9310206E-004	13	-1.5511143E-006	7.4941016E+003
2	0	0	1	2.358939940408163E+001	1.0713371E-001	1.0683821E-001	-1.437872605830698E-002	-2.9600228E-004	13	-1.5361974E-006	7.4302974E+003
2	0	0	1	2.378939939902921E+001	1.0613373E-001	1.0588624E-001	-1.438331343626914E-002	-2.9890271E-004	13	-1.5229950E-006	7.3617422E+003
2	0	0	1	2.398939939397678E+001	1.0513375E-001	1.0483147E-001	-1.438589417652805E-002	-3.0180329E-004	13	-1.5080944E-006	7.2871016E+003
2	0	0	1	2.418939938892436E+001	1.0413378E-001	1.0389859E-001	-1.438172325009350E-002	-3.0470334E-004	13	-1.4942408E-006	7.2243491E+003
2	0	0	1	2.438939938387193E+001	1.0313381E-001	1.0284062E-001	-1.438374827838190E-002	-3.0760307E-004	13	-1.4792337E-006	7.1497793E+003
2	0	0	1	2.458939937881951E+001	1.0213381E-001	1.0181764E-001	-1.437848771588629E-002	-3.1050397E-004	13	-1.4639836E-006	7.0812480E+003
2	0	0	1	2.478939937376708E+001	1.0113384E-001	1.0082009E-001	-1.438179013280771E-002	-3.1340506E-004	13	-1.4499733E-006	7.0102598E+003
2	0	0	1	2.498939936871466E+001	1.0013386E-001	9.9815138E-002	-1.437756741726176E-002	-3.1630538E-004	13	-1.4350989E-006	6.9424219E+003
2	0	0	1	2.518939936366223E+001	9.9133886E-002	9.8796390E-002	-1.437396314900580E-002	-3.1920581E-004	13	-1.4200957E-006	6.8732881E+003
2	0	0	1	2.538939935860981E+001	9.8133914E-002	9.7787194E-002	-1.437546529866807E-002	-3.2210650E-004	13	-1.4057364E-006	6.8023672E+003
2	0	0	1	2.558939935355738E+001	9.7133934E-002	9.6818276E-002	-1.437675688112719E-002	-3.2500707E-004	13	-1.3919328E-006	6.7343613E+003
2	0	0	1	2.578939934850496E+001	9.6133962E-002	9.5830277E-002	-1.437209699542602E-002	-3.2790843E-004	13	-1.3772820E-006	6.6678008E+003
2	0	0	1	2.598939934345253E+001	9.5133983E-002	9.4764888E-002	-1.437602621131501E-002	-3.3081006E-004	13	-1.3623426E-006	6.5918696E+003
2	0	0	1	2.618939933840011E+001	9.4133995E-002	9.3822472E-002	-1.438453315180145E-002	-3.3371177E-004	13	-1.3495925E-006	6.5224551E+003
2	0	0	1	2.638939933334768E+001	9.3134031E-002	9.2797361E-002	-1.437826030621048E-002	-3.3661400E-004	13	-1.3342647E-006	6.4540049E+003
2	0	0	1	2.658939932829526E+001	9.2134044E-002	9.1831625E-002	-1.438256383035649E-002	-3.3951638E-004	13	-1.3207742E-006	6.3849272E+003
2	0	0	1	2.678939932324283E+001	9.1134071E-002	9.0823486E-002	-1.438007447810508E-002	-3.4241943E-004	13	-1.3060485E-006	6.3159258E+003
2	0	0	1	2.698939931819041E+001	9.0134092E-002	8.9825936E-002	-1.439291481303515E-002	-3.4532309E-004	13	-1.2928571E-006	6.2409829E+003
2	0	0	1	2.718939931313798E+001	8.9134119E-002	8.8797659E-002	-1.439083380481578E-002	-3.4822721E-004	13	-1.2778723E-006	6.1704316E+003
2	0	0	1	2.738939930808556E+001	8.8134140E-002	8.7804347E-002	-1.438949661936018E-002	-3.5113210E-004	13	-1.2634604E-006	6.1019751E+003
2	0	0	1	2.758939930303313E+001	8.7134168E-002	8.6809993E-002	-1.439316536837343E-002	-3.5403750E-004	13	-1.2494705E-006	6.0313345E+003
2	0	0	1	2.778939929798071E+001	8.6134188E-002	8.5850611E-002	-1.439372222430269E-002	-3.5694361E-004	13	-1.2357099E-006	5.9644482E+003
2	0	0	1	2.798939929292828E+001	8.5134208E-002	8.4799014E-002	-1.439894848809911E-002	-3.5985064E-004	13	-1.2210166E-006	5.8892505E+003
2	0	0	1	2.818939928787586E+001	8.4134236E-002	8.3823726E-002	-1.439954137813423E-002	-3.6275818E-004	13	-1.2070232E-006	5.8212773E+003
2	0	0	1	2.838939928282343E+001	8.3134256E-002	8.2778484E-002	-1.440621287611582E-002	-3.6566681E-004	13	-1.1925245E-006	5.7460269E+003
2	0	0	1	2.858939927777101E+001	8.2134277E-002	8.1813805E-002	-1.440723012903672E-002	-3.6857641E-004	13	-1.1787104E-006	5.6786631E+003
2	0	0	1	2.878939927271858E+001	8.1134297E-002	8.0805667E-002	-1.440706094418063E-002	-3.7148644E-004	13	-1.1641722E-006	5.6087544E+003
2	0	0	1	2.898939926766616E+001	8.0134325E-002	7.9825073E-002	-1.441444660607694E-002	-3.7439825E-004	13	-1.1506343E-006	5.5378521E+003
2	0	0	1	2.918939926261373E+001	7.9134353E-002	7.8792557E-002	-1.441424480394415E-002	-3.7731056E-004	13	-1.1357353E-006	5.4662979E+003
2	0	0	1	2.938939925756131E+001	7.8134365E-002	7.7841662E-002	-1.442000795685838E-002	-3.8022359E-004	13	-1.1224773E-006	5.3981704E+003
2	0	0	1	2.958939925250888E+001	7.7134393E-002	7.6811247E-002	-1.441637925352787E-002	-3.8313816E-004	13	-1.1073400E-006	5.3280542E+003
2	0	0	1	2.978939924745646E+001	7.6134421E-002	7.5816900E-002	-1.441714640238478E-002	-3.8605390E-004	13	-1.0930634E-006	5.2588008E+003
2	0	0	1	2.998939924240403E+001	7.5134441E-002	7.4807696E-002	-1.442663418815437E-002	-3.8897060E-004	13	-1.0792232E-006	5.1853882E+003
2	0	0	1	3.018939923735161E+001	7.4134454E-002	7.3791064E-002	-1.442746794808976E-002	-3.9188829E-004	13	-1.0646182E-006	5.1146235E+003
2	0	0	1	3.038929923230171E+001	7.3134594E-002	7.2782993E-002	-1.443584772893530E-002	-3.9480560E-004	13	-1.0506842E-006	5.0418232E+003
2	0	0	0	3.058919922725181E+001	7.2134510E-002	7.1777955E-002	-1.443948728336508E-002	-3.9772451E-004	13	-1.0364369E-006	4.9709492E+003
2	0	0	0	3.078919922219939E+001	7.1134530E-002	7.0815407E-002	-1.444537502733562E-002	-4.0064621E-004	13	-1.0229551E-006	4.9022891E+003
2	0	0	0	3.098919921714696E+001	7.0134550E-002	6.9792412E-002	-1.444934954105969E-002	-4.0356908E-004	13	-1.0084550E-006	4.8301421E+003
2	0	0	0	3.118919921209454E+001	6.9134578E-002	6.8815015E-002	-1.444345894702572E-002	-4.0649340E-004	13	-9.9392685E-007	4.7644414E+003
2	0	0	0	3.138919920704211E+001	6.8134598E-002	6.7796275E-002	-1.445362320071603E-002	-4.0941901E-004	13	-9.7990187E-007	4.6906074E+003
2	0	0	0	3.158919920198969E+001	6.7134619E-002	6.6825233E-002	-1.445093744631347E-002	-4.1234604E-004	13	-9.6568726E-007	4.6242837E+003
2	0	0	0	3.178919919693726E+001	6.6134647E-002	6.5840408E-002	-1.446562404060614E-002	-4.1527461E-004	13	-9.5242257E-007	4.5515083E+003
2	0	0	0	3.198919919188484E+001	6.5134659E-002	6.4829089E-002	-1.446343575593173E-002	-4.1820452E-004	13	-9.3765135E-007	4.4822744E+003
2	0	0	0	3.218919918683241E+001	6.4134687E-002	6.3818835E-002	-1.446135527012941E-002	-4.2113638E-004	13	-9.2290685E-007	4.4130605E+003
2	0	0	0	3.238919918177999E+001	6.3134715E-002	6.2842488E-002	-1.447690030849741E-002	-4.2406964E-004	13	-9.0976442E-007	4.3408799E+003
2	0	0	0	3.258919917672756E+001	6.2134739E-002	6.1789822E-002	-1.447040441761729E-002	-4.2700444E-004	13	-8.9412373E-007	4.2700825E+003
2	0	0	0	3.278919917167514E+001	6.1134756E-002	6.0808178E-002	-1.447230365849045E-002	-4.2994090E-004	13	-8.8003441E-007	4.2016929E+003
2	0	0	0	3.298919916662271E+001	6.0134780E-002	5.9847742E-002	-1.447782061675715E-002	-4.3287905E-004	13	-8.6646486E-007	4.1337534E+003
2	0	0	0	3.318919916157029E+001	5.9134804E-002	5.8820512E-002	-1.448494987918669E-002	-4.3581901E-004	13	-8.5201219E-007	4.0608020E+003
2	0	0	0	3.338919915651786E+001	5.8134828E-002	5.7839934E-002	-1.448724173825622E-002	-4.3876076E-004	13	-8.3794112E-007	3.9924739E+003
2	0	0	0	3.358919915146544E+001	5.7134852E-002	5.6786206E-002	-1.449082989579323E-002	-4.4170447E-004	13	-8.2287926E-007	3.9187683E+003
2	0	0	0	3.378919914641301E+001	5.6134872E-002	5.5833194E-002	-1.449755222978527E-002	-4.4465050E-004	13	-8.0944466E-007	3.8512153E+003
2	0	0	0	3.398919914136059E+001	5.5134896E-002	5.4792184E-002	-1.450536202622445E-002	-4.4759788E-004	13	-7.9478048E-007	3.7773745E+003
2	0	0	0	3.418919913630816E+001	5.4134917E-002	5.3825390E-002	-1.450878212266957E-002	-4.5054735E-004	13	-7.8094087E-007	3.7098489E+003
2	0	0	0	3.438919913125574E+001	5.3134941E-002	5.2828908E-002	-1.450979919779979E-002	-4.5349868E-004	13	-7.6653686E-007	3.6409124E+003
2	0	0	0	3.458919912620331E+001	5.2134968E-002	5.1836666E-002	-1.451099713244780E-002	-4.5645217E-004	13	-7.5220169E-007	3.5722332E+003
2	0	0	0	3.478919912115089E+001	5.1134981E-002	5.0815802E-002	-1.452259830771489E-002	-4.5940763E-004	13	-7.3797747E-007	3.4990847E+003
2	0	0	0	3.498919911609846E+001	5.0135009E-002	4.9808722E-002	-1.452478717908570E-002	-4.6236551E-004	13	-7.2346108E-007	3.4292222E+003
2	0	0	0	3.518919911104604E+001	4.9135033E-002	4.8802696E-002	-1.452883384351517E-002	-4.6532517E-004	13	-7.0904628E-007	3.3590237E+003
2	0	0	0	3.538919910599361E+001	4.8135057E-002	4.7793493E-002	-1.453812173863367E-002	-4.6828736E-004	13	-6.9482763E-007	3.2874600E+003
2	0	0	0	3.558919910094119E+001	4.7135077E-002	4.6828814E-002	-1.452592899772082E-002	-4.7125135E-004	13	-6.8023201E-007	3.2238086E+003
2	0	0	0	3.578919909588876E+001	4.6135101E-002	4.5810070E-002	-1.455025175821813E-002	-4.7421813E-004	13	-6.6654803E-007	3.1484041E+003
2	0	0	0	3.598919909083634E+001	4.5135126E-002	4.4805113E-002	-1.456464723144842E-002	-4.7718725E-004	13	-6.5257069E-007	3.0762925E+003
2	0	0	0	3.618919908578391E+001	4.4135146E-002	4.3826647E-002	-1.456413584982534E-002	-4.8015834E-004	13	-6.3829725E-007	3.0092170E+003
2	0	0	0	3.638919908073149E+001	4.3135174E-002	4.2807907E-002	-1.456217413022171E-002	-4.8313205E-004	13	-6.2337620E-007	2.9396646E+003
2	0	0	0	3.658919907567906E+001	4.2135194E-002	4.1800827E-002	-1.457613461007842E-002	-4.8610824E-004	13	-6.0929449E-007	2.8677581E+003
2	0	0	0	3.678919907062664E+001	4.1135211E-002	4.0805399E-002	-1.458660426260291E-002	-4.8908655E-004	13	-5.9521221E-007	2.7974570E+003
2	0	0	0	3.698919906557421E+001	4.0135242E-002	3.9820582E-002	-1.459113417534881E-002	-4.9206783E-004	13	-5.8102745E-007	2.7290942E+003
2	0	0	0	3.718919906052179E+001	3.9135262E-002	3.8834698E-002	-1.460672016630413E-002	-4.9505132E-004	13	-5.6724758E-007	2.6586870E+003
2	0	0	0	3.738919905546936E+001	3.8135283E-002	3.7807476E-002	-1.462287264569849E-002	-4.9803767E-004	13	-5.5285392E-007	2.5855027E+003
2	0	0	0	3.758919905041694E+001	3.7135307E-002	3.6852337E-002	-1.461740044872710E-002	-5.0102675E-004	13	-5.3868536E-007	2.5211279E+003
2	0	0	0	3.778919904536451E+001	3.6135331E-002	3.5825115E-002	-1.464044443073492E-002	-5.0401775E-004	13	-5.2449559E-007	2.4469963E+003
2	0	0	0	3.798919904031209E+001	3.5135351E-002	3.4844533E-002	-1.465287213340460E-002	-5.0701189E-004	13	-5.1057248E-007	2.3780002E+003
2	0	0	0	3.818919903525966E+001	3.4135371E-002	3.3842750E-002	-1.465509184731210E-002	-5.1000871E-004	13	-4.9596861E-007	2.3092827E+003
2	0	0	0	3.838919903020724E+001	3.3135399E-002	3.2853685E-002	-1.468015158873121E-002	-5.1300833E-004	13	-4.8229708E-007	2.2379663E+003
2	0	0	0	3.858919902515481E+001	3.2135420E-002	3.1793602E-002	-1.468342967379460E-002	-5.1601103E-004	13	-4.6683911E-007	2.1652708E+003
2	0	0	0	3.878919902010239E+001	3.1135447E-002	3.0803479E-002	-1.469474939759837E-002	-5.1901658E-004	13	-4.5264940E-007	2.0962236E+003
2	0	0	0	3.898919901504996E+001	3.0135470E-002	2.9794278E-002	-1.472713993959948E-002	-5.2202423E-004	13	-4.3878450E-007	2.0230864E+003
2	0	0	0	3.918919900999754E+001	2.9135490E-002	2.8833844E-002	-1.472812872831421E-002	-5.2503520E-004	13	-4.2466857E-007	1.9577397E+003
2	0	0	1	3.938909900494764E+001	2.8135180E-002	2.7857125E-002	-1.473346296760356E-002	-5.2804721E-004	13	-4.1043191E-007	1.8907384E+003
2	0	0	1	3.958899899989774E+001	2.7135538E-002	2.6837697E-002	-1.475511076809968E-002	-5.3106237E-004	13	-3.9599320E-007	1.8188746E+003
2	0	0	1	3.978899899484531E+001	2.6135560E-002	2.5821073E-002	-1.475325165883493E-002	-5.3408236E-004	13	-3.8094478E-007	1.7501954E+003
2	0	0	1	3.998899898979289E+001	2.5135582E-002	2.4795970E-002	-1.478167108876230E-002	-5.3710578E-004	13	-3.6652588E-007	1.6774808E+003
2	0	0	1	4.018899898474046E+001	2.4135605E-002	2.3842949E-002	-1.479197372700870E-002	-5.4013322E-004	13	-3.5268428E-007	1.6118843E+003
2	0	0	1	4.038899897968804E+001	2.3135630E-002	2.2832690E-002	-1.480213241612585E-002	-5.4316223E-004	13	-3.3797249E-007	1.5425271E+003
2	0	0	1	4.058899897463562E+001	2.2135653E-002	2.1795921E-002	-1.481296836035306E-002	-5.4619444E-004	13	-3.2286229E-007	1.4714081E+003
2	0	0	1	4.078899896958319E+001	2.1135675E-002	2.0827005E-002	-1.482923287669163E-002	-5.4923038E-004	13	-3.0884851E-007	1.4044559E+003
2	0	0	1	4.098899896453077E+001	2.0135697E-002	1.9818861E-002	-1.485393994053308E-002	-5.5226876E-004	13	-2.9438817E-007	1.3342494E+003
2	0	0	1	4.118899895947834E+001	1.9135719E-002	1.8828740E-002	-1.486676879390303E-002	-5.5531104E-004	13	-2.7992252E-007	1.2664985E+003
2	0	0	1	4.138899895442592E+001	1.8135743E-002	1.7779253E-002	-1.488805046928576E-002	-5.5835646E-004	13	-2.6469843E-007	1.1941962E+003
2	0	0	1	4.158899894937349E+001	1.7135765E-002	1.6798673E-002	-1.490065311554234E-002	-5.6140439E-004	13	-2.5031119E-007	1.1273783E+003
2	0	0	1	4.178899894432107E+001	1.6135788E-002	1.5803250E-002	-1.490533836038099E-002	-5.6445645E-004	13	-2.3555278E-007	1.0602410E+003
2	0	0	1	4.198899893926864E+001	1.5135812E-002	1.4806769E-002	-1.492739442401705E-002	-5.6751177E-004	13	-2.2102648E-007	9.9191919E+002
2	0	0	1	4.218899893421622E+001	1.4135834E-002	1.3820889E-002	-1.493785831596293E-002	-5.7057012E-004	13	-2.0645449E-007	9.2522565E+002
2	0	0	1	4.238899892916379E+001	1.3135858E-002	1.2837128E-002	-1.496406976709591E-002	-5.7363242E-004	13	-1.9209567E-007	8.5786340E+002
2	0	0	1	4.258899892411137E+001	1.2135880E-002	1.1802484E-002	-1.496614737854854E-002	-5.7669758E-004	13	-1.7663771E-007	7.8861206E+002
2	0	0	1	4.278899891905894E+001	1.1135903E-002	1.0822962E-002	-1.498167088879329E-002	-5.7976623E-004	13	-1.6214605E-007	7.2241357E+002
2	0	0	1	4.298899891400652E+001	1.0135926E-002	9.8137623E-003	-1.501389061137207E-002	-5.8283855E-004	13	-1.4734276E-007	6.5364551E+002
2	0	0	1	4.318899890895409E+001	9.1359485E-003	8.8109178E-003	-1.502790787880769E-002	-5.8591383E-004	13	-1.3240967E-007	5.8630371E+002
2	0	0	1	4.338899890390167E+001	8.1359716E-003	7.7815745E-003	-1.504372667915632E-002	-5.8899343E-004	13	-1.1706388E-007	5.1726373E+002
2	0	0	1	4.358899889884924E+001	7.1359943E-003	6.7766118E-003	-1.506403691566688E-002	-5.9207639E-004	13	-1.0208313E-007	4.4985364E+002
2	0	0	1	4.378899889379682E+001	6.1360174E-003	5.7992120E-003	-1.506652869376542E-002	-5.9516303E-004	13	-8.7373998E-008	3.8490698E+002
2	0	0	1	4.398899888874439E+001	5.1360405E-003	4.8260516E-003	-1.508604053486051E-002	-5.9825403E-004	13	-7.2806010E-008	3.1990179E+002
2	0	0	1	4.418899888369197E+001	4.1360627E-003	3.8486514E-003	-1.509760759317882E-002	-6.0134690E-004	13	-5.8105428E-008	2.5491797E+002
2	0	0	1	4.438899887863954E+001	3.1360863E-003	2.8224876E-003	-1.512050029175990E-002	-6.0444407E-004	13	-4.2677424E-008	1.8666629E+002
2	0	0	1	4.458899887358712E+001	2.1361089E-003	1.8079844E-003	-1.511442008198081E-002	-6.0754496E-004	13	-2.7326637E-008	1.1961983E+002
2	0	0	1	4.478899886853469E+001	1.1361319E-003	8.1574306E-004	-1.514138691702782E-002	-6.1064918E-004	13	-1.2351482E-008	5.3875053E+001
2	0	0	1	4.498899886348227E+001	1.3615473E-004	-1.7543831E-004	-1.518951461475147E-002	-6.1376143E-004	13	2.6648228E-009	1.1549962E+001
2	0	0	1	4.518899885842984E+001	-8.6382264E-004	-1.2312853E-003	-1.518825040216806E-002	-6.1687810E-004	13	1.8701069E-008	8.1068275E+001
2	0	0	1	4.538899885337742E+001	-1.8638003E-003	-2.2404885E-003	-1.519942409126612E-002	-6.1999552E-004	13	3.4054136E-008	1.4740614E+002
2	0	0	1	4.558899884832499E+001	-2.8637780E-003	-3.2316705E-003	-1.518626287400032E-002	-6.2311656E-004	13	4.9076998E-008	2.1280222E+002
2	0	0	1	4.578899884327257E+001	-3.8637554E-003	-4.2419336E-003	-1.520874029893404E-002	-6.2623998E-004	13	6.4514467E-008	2.7891418E+002
2	0	0	1	4.598899883822014E+001	-4.8637330E-003	-5.2415957E-003	-1.524059824796509E-002	-6.2936766E-004	13	7.9885055E-008	3.4392322E+002
2	0	0	1	4.618899883316772E+001	-5.8637103E-003	-6.2412587E-003	-1.524339345573657E-002	-6.3249888E-004	13	9.5137963E-008	4.0944025E+002
2	0	0	1	4.638899882811529E+001	-6.8636881E-003	-7.2282003E-003	-1.528296010756697E-002	-6.3563394E-004	13	1.1046830E-007	4.7295813E+002
2	0	0	1	4.658899882306287E+001	-7.8636659E-003	-8.2533043E-003	-1.528061839898143E-002	-6.3877366E-004	13	1.2611559E-007	5.4011584E+002
2	0	0	1	4.678899881801044E+001	-8.8636428E-003	-9.2190448E-003	-1.530359655617608E-002	-6.4191653E-004	13	1.4108454E-007	6.0241034E+002
2	0	0	1	4.698899881295802E+001	-9.8636206E-003	-1.0269591E-002	-1.532138478250589E-002	-6.4506335E-004	13	1.5734435E-007	6.7027820E+002
2	0	0	1	4.718899880790559E+001	-1.0863598E-002	-1.1190806E-002	-1.532403491091615E-002	-6.4821384E-004	13	1.7148830E-007	7.3027802E+002
2	0	0	1	4.738899880285317E+001	-1.1863576E-002	-1.2240293E-002	-1.534362544969259E-002	-6.5136713E-004	13	1.8781046E-007	7.9774451E+002
2	0	0	1	4.758899879780074E+001	-1.2863554E-002	-1.3264337E-002	-1.535643679364385E-002	-6.5452594E-004	13	2.0369295E-007	8.6376398E+002
2	0	0	1	4.778899879274832E+001	-1.3863531E-002	-1.4223715E-002	-1.538825542214611E-002	-6.5768766E-004	13	2.1887817E-007	9.2432281E+002
2	0	0	1	4.798899878769589E+001	-1.4863510E-002	-1.5211717E-002	-1.539497937644933E-002	-6.6085299E-004	13	2.3418407E-007	9.8809601E+002
2	0	0	1	4.818889878264599E+001	-1.5863376E-002	-1.6162563E-002	-1.540445332768274E-002	-6.6402153E-004	13	2.4897545E-007	1.0492136E+003
2	0	0	0	4.838879877759609E+001	-1.6863465E-002	-1.7178180E-002	-1.540620834870235E-002	-6.6719361E-004	13	2.6465062E-007	1.1150167E+003
2	0	0	0	4.858879877254367E+001	-1.7863439E-002	-1.8206464E-002	-1.542268788387635E-002	-6.7037006E-004	13	2.8079262E-007	1.1804988E+003
2	0	0	0	4.878879876749124E+001	-1.8863419E-002	-1.9212488E-002	-1.544553713142860E-002	-6.7355181E-004	13	2.9674720E-007	1.2438860E+003
2	0	0	0	4.898879876243882E+001	-1.9863397E-002	-2.0217450E-002	-1.544384277030263E-002	-6.7673711E-004	13	3.1223513E-007	1.3090946E+003
2	0	0	0	4.918879875738639E+001	-2.0863375E-002	-2.1241495E-002	-1.548219759063688E-002	-6.7992619E-004	13	3.2886504E-007	1.3719949E+003
2	0	0	0	4.938879875233397E+001	-2.1863353E-002	-2.2245398E-002	-1.549472504434257E-002	-6.8311940E-004	13	3.4468633E-007	1.4356755E+003
2	0	0	0	4.958879874728154E+001	-2.2863330E-002	-2.3254601E-002	-1.550570659760731E-002	-6.8631483E-004	13	3.6057904E-007	1.4997448E+003
2	0	0	0	4.978879874222912E+001	-2.3863306E-002	-2.4192780E-002	-1.552086319157204E-002	-6.8951614E-004	13	3.7549285E-007	1.5587264E+003
2	0	0	0	4.998879873717669E+001	-2.4863288E-002	-2.5196681E-002	-1.551506995480051E-002	-6.9271988E-004	13	3.9092828E-007	1.6240133E+003
2	0	0	0	5.018879873212427E+001	-2.5863262E-002	-2.6218606E-002	-1.554510071691512E-002	-6.9593004E-004	13	4.0757087E-007	1.6866154E+003
2	0	0	0	5.038879872707184E+001	-2.6863238E-002	-2.7211908E-002	-1.554918433911770E-002	-6.9914403E-004	13	4.2312297E-007	1.7500537E+003
2	0	0	0	5.058879872201942E+001	-2.7863218E-002	-2.8275175E-002	-1.556223029307197E-002	-7.0235966E-004	13	4.4002479E-007	1.8169102E+003
2	0	0	0	5.078879871696699E+001	-2.8863195E-002	-2.9205931E-002	-1.560021624921520E-002	-7.0558017E-004	13	4.5561885E-007	1.8721492E+003
2	0	0	0	5.098879871191457E+001	-2.9863173E-002	-3.0200295E-002	-1.558919899076402E-002	-7.0880371E-004	13	4.7079840E-007	1.9372577E+003
2	0	0	0	5.118879870686214E+001	-3.0863151E-002	-3.1222217E-002	-1.559394802143181E-002	-7.1203057E-004	13	4.8687764E-007	2.0022009E+003
2	0	0	0	5.138879870180972E+001	-3.1863131E-002	-3.2232478E-002	-1.562913171453359E-002	-7.1526330E-004	13	5.0376565E-007	2.0623333E+003
2	0	0	0	5.158879869675729E+001	-3.2863103E-002	-3.3234268E-002	-1.561589173081941E-002	-7.1849889E-004	13	5.1898274E-007	2.1282339E+003
2	0	0	0	5.178879869170487E+001	-3.3863083E-002	-3.4248766E-002	-1.566738466472975E-002	-7.2173763E-004	13	5.3658857E-007	2.1859912E+003
2	0	0	0	5.198879868665244E+001	-3.4863066E-002	-3.5224047E-002	-1.565178477917025E-002	-7.2498113E-004	13	5.5131920E-007	2.2504812E+003
2	0	0	0	5.218879868160002E+001	-3.5863038E-002	-3.6197208E-002	-1.568146009943733E-002	-7.2822737E-004	13	5.6762508E-007	2.3082805E+003
2	0	0	0	5.238879867654759E+001	-3.6863018E-002	-3.7184153E-002	-1.568330133723439E-002	-7.3147722E-004	13	5.8317028E-007	2.3709392E+003
2	0	0	0	5.258879867149517E+001	-3.7862994E-002	-3.8181692E-002	-1.566497649685450E-002	-7.3473150E-004	13	5.9811532E-007	2.4373923E+003
2	0	0	0	5.278879866644274E+001	-3.8862970E-002	-3.9257683E-002	-1.571399654890560E-002	-7.3798915E-004	13	6.1689508E-007	2.4982622E+003
2	0	0	0	5.298879866139032E+001	-3.9862949E-002	-4.0245678E-002	-1.569781869202702E-002	-7.4125221E-004	13	6.3176935E-007	2.5637751E+003
2	0	0	0	5.318879865633789E+001	-4.0862925E-002	-4.1216720E-002	-1.572740774722076E-002	-7.4451743E-004	13	6.4823217E-007	2.6206938E+003
2	0	0	0	5.338879865128547E+001	-4.1862909E-002	-4.2213205E-002	-1.574381667320235E-002	-7.4778660E-004	13	6.6459694E-007	2.6812561E+003
2	0	0	0	5.358879864623304E+001	-4.2862877E-002	-4.3245729E-002	-1.575708526525599E-002	-7.5106038E-004	13	6.8142663E-007	2.7445259E+003
2	0	0	0	5.378879864118062E+001	-4.3862861E-002	-4.4234790E-002	-1.573333346528843E-002	-7.5433688E-004	13	6.9596069E-007	2.8115332E+003
2	0	0	0	5.398879863612819E+001	-4.4862840E-002	-4.5214314E-002	-1.575884805456898E-002	-7.5761811E-004	13	7.1252549E-007	2.8691382E+003
2	0	0	0	5.418879863107577E+001	-4.5862813E-002	-4.6220332E-002	-1.575214560727045E-002	-7.6090399E-004	13	7.2806938E-007	2.9342246E+003
2	0	0	0	5.438879862602334E+001	-4.6862788E-002	-4.7263455E-002	-1.581337436866814E-002	-7.6419348E-004	13	7.4739472E-007	2.9888279E+003
2	0	0	0	5.458879862097092E+001	-4.7862772E-002	-4.8241924E-002	-1.581263686374543E-002	-7.6748925E-004	13	7.6283203E-007	3.0508462E+003
2	0	0	0	5.478879861591849E+001	-4.8862748E-002	-4.9242642E-002	-1.591413784331319E-002	-7.7078439E-004	13	7.8365417E-007	3.0942703E+003
2	0	0	0	5.498879861086607E+001	-4.9862724E-002	-5.0193541E-002	-1.578781403885744E-002	-7.7408389E-004	13	7.9244631E-007	3.1792583E+003
2	0	0	0	5.518879860581364E+001	-5.0862703E-002	-5.1221825E-002	-1.584858953178792E-002	-7.7738904E-004	13	8.1179365E-007	3.2319485E+003
2	0	0	0	5.538879860076122E+001	-5.1862683E-002	-5.2206647E-002	-1.585829762985841E-002	-7.8069762E-004	13	8.2790854E-007	3.2920713E+003
2	0	0	0	5.558879859570879E+001	-5.2862659E-002	-5.3211611E-002	-1.580830258034827E-002	-7.8400847E-004	13	8.4118523E-007	3.3660547E+003
2	0	0	0	5.578879859065637E+001	-5.3862631E-002	-5.4187953E-002	-1.590425372791587E-002	-7.8732509E-004	13	8.6181893E-007	3.4071360E+003
2	0	0	0	5.598879858560395E+001	-5.4862618E-002	-5.5205636E-002	-1.588272880126627E-002	-7.9064484E-004	13	8.7681616E-007	3.4758281E+003
2	0	0	0	5.618879858055152E+001	-5.5862591E-002	-5.6195762E-002	-1.586290108184638E-002	-7.9396693E-004	13	8.9142782E-007	3.5425906E+003
2	0	0	0	5.638879857549910E+001	-5.6862570E-002	-5.7212383E-002	-1.592190162943413E-002	-7.9729315E-004	13	9.1092994E-007	3.5933135E+003
2	0	0	0	5.658879857044667E+001	-5.7862550E-002	-5.8201440E-002	-1.589507254921826E-002	-8.0062373E-004	13	9.2511613E-007	3.6616025E+003
2	0	0	0	5.678879856539425E+001	-5.8862526E-002	-5.9240326E-002	-1.591329683223425E-002	-8.0395956E-004	13	9.4270888E-007	3.7226934E+003
2	0	0	0	5.698879856034182E+001	-5.9862502E-002	-6.0249530E-002	-1.591988276812202E-002	-8.0729753E-004	13	9.5916550E-007	3.7845461E+003
2	0	0	1	5.718859855529445E+001	-6.0862478E-002	-6.1185583E-002	-1.593096541735860E-002	-8.1063726E-004	13	9.7474538E-007	3.8406702E+003
2	0	0	1	5.738859855024202E+001	-6.1862461E-002	-6.2212814E-002	-1.593438197017588E-002	-8.1398251E-004	13	9.9132274E-007	3.9043130E+003
2	0	0	1	5.758859854518960E+001	-6.2862433E-002	-6.3235797E-002	-1.594633606641048E-002	-8.1732974E-004	13	1.0083793E-006	3.9655376E+003
2	0	0	1	5.778859854013717E+001	-6.3862413E-002	-6.4236514E-002	-1.597412901810663E-002	-8.2068349E-004	13	1.0261224E-006	4.0212844E+003
2	0	0	1	5.798859853508475E+001	-6.4862393E-002	-6.5230884E-002	-1.595116604466416E-002	-8.2404068E-004	13	1.0405087E-006	4.0894116E+003
2	0	0	1	5.818859853003232E+001	-6.5862365E-002	-6.6176474E-002	-1.599523803689613E-002	-8.2740112E-004	13	1.0585085E-006	4.1372607E+003
2	0	0	1	5.838859852497990E+001	-6.6862345E-002	-6.7200527E-002	-1.600139987401039E-002	-8.3076541E-004	13	1.0753025E-006	4.1996655E+003
2	0	0	1	5.858859851992747E+001	-6.7862324E-002	-6.8247892E-002	-1.600987093785532E-002	-8.3413225E-004	13	1.0926400E-006	4.2628633E+003
2	0	0	1	5.878859851487505E+001	-6.8862297E-002	-6.9238015E-002	-1.601503200313212E-002	-8.3750283E-004	13	1.1088490E-006	4.3233140E+003
2	0	0	1	5.898859850982262E+001	-6.9862276E-002	-7.0223890E-002	-1.597906332468313E-002	-8.4087817E-004	13	1.1221119E-006	4.3947437E+003
2	0	0	1	5.918859850477020E+001	-7.0862249E-002	-7.1207657E-002	-1.603859111528356E-002	-8.4425672E-004	13	1.1420705E-006	4.4397700E+003
2	0	0	1	5.938859849971777E+001	-7.1862236E-002	-7.2176576E-002	-1.598995411504583E-002	-8.4763963E-004	13	1.1541001E-006	4.5138701E+003
2	0	0	1	5.958859849466535E+001	-7.2862208E-002	-7.3246203E-002	-1.604868470144174E-002	-8.5102580E-004	13	1.1755052E-006	4.5640005E+003
2	0	0	1	5.978859848961292E+001	-7.3862188E-002	-7.4168481E-002	-1.604040193977574E-002	-8.5441530E-004	13	1.1896923E-006	4.6238545E+003
2	0	0	1	5.998859848456050E+001	-7.4862167E-002	-7.5171329E-002	-1.604715940123320E-002	-8.5780933E-004	13	1.2062864E-006	4.6844009E+003
2	0	0	1	6.018859847950807E+001	-7.5862139E-002	-7.6216564E-002	-1.604845498339008E-002	-8.6120580E-004	13	1.2231581E-006	4.7491528E+003
2	0	0	1	6.038859847445565E+001	-7.6862119E-002	-7.7195026E-002	-1.605036168487523E-002	-8.6460839E-004	13	1.2390080E-006	4.8095508E+003
2	0	0	1	6.058859846940322E+001	-7.7862099E-002	-7.8224376E-002	-1.609879297435551E-002	-8.6801511E-004	13	1.2593181E-006	4.8590210E+003
2	0	0	1	6.078859846435080E+001	-7.8862078E-002	-7.9211310E-002	-1.606026481556682E-002	-8.7142253E-004	13	1.2721546E-006	4.9321299E+003
2	0	0	1	6.098859845929837E+001	-7.9862051E-002	-8.0231115E-002	-1.608112625777192E-002	-8.7483530E-004	13	1.2902067E-006	4.9891479E+003
2	0	0	1	6.118859845424595E+001	-8.0862030E-002	-8.1227593E-002	-1.610142166993964E-002	-8.7825098E-004	13	1.3078798E-006	5.0447466E+003
2	0	0	1	6.138859844919352E+001	-8.1862003E-002	-8.2207121E-002	-1.610385300010839E-002	-8.8166975E-004	13	1.3238514E-006	5.1048105E+003
2	0	0	1	6.158859844414110E+001	-8.2861982E-002	-8.3218448E-002	-1.609781191128891E-002	-8.8509370E-004	13	1.3396349E-006	5.1695503E+003
2	0	0	1	6.178859843908867E+001	-8.3861962E-002	-8.4201150E-002	-1.612746718924607E-002	-8.8852103E-004	13	1.3579513E-006	5.2209780E+003
2	0	0	1	6.198859843403625E+001	-8.4861942E-002	-8.5217766E-002	-1.615517906163016E-002	-8.9195167E-004	13	1.3767083E-006	5.2749502E+003
2	0	0	1	6.218859842898382E+001	-8.5861914E-002	-8.6205766E-002	-1.610560391822630E-002	-8.9538522E-004	13	1.3883960E-006	5.3525322E+003
2	0	0	1	6.238859842393140E+001	-8.6861901E-002	-8.7263733E-002	-1.614724123631894E-002	-8.9882285E-004	13	1.4090685E-006	5.4042505E+003
2	0	0	1	6.258859841887897E+001	-8.7861881E-002	-8.8190258E-002	-1.547629815260201E-002	-9.0237061E-004	13	1.3648587E-006	5.6984077E+003
2	0	0	1	6.280859841332131E+001	-8.8961847E-002	-8.9229137E-002	-2.413022208451232E-002	-9.0676697E-004	12	2.1531189E-006	3.6978167E+003
2	0	0	1	6.304859840725840E+001	-9.0161823E-002	-9.0444006E-002	-2.585965114837507E-002	-9.1155089E-004	13	2.3388504E-006	3.4974951E+003
2	0	0	1	6.324859840220597E+001	-9.1161795E-002	-9.1741554E-002	-2.639585349137535E-002	-9.1535458E-004	13	2.4215967E-006	3.4756047E+003
2	0	0	1	6.344859839715355E+001	-9.2161775E-002	-9.2613988E-002	-2.610211787283911E-002	-9.1911212E-004	13	2.4174212E-006	3.5481406E+003
2	0	0	1	6.364859839210112E+001	-9.3161754E-002	-9.3562774E-002	-2.654397001441433E-002	-9.2284073E-004	13	2.4835274E-006	3.5248223E+003
2	0	0	1	6.384859838704870E+001	-9.4161727E-002	-9.4552897E-002	-2.618317075903670E-002	-9.2659338E-004	13	2.4756946E-006	3.6112087E+003
2	0	0	1	6.404859838199627E+001	-9.5161714E-002	-9.5705219E-002	-2.631182481335204E-002	-9.3033432E-004	13	2.5181789E-006	3.6373462E+003
2	0	0	1	6.424859837694385E+001	-9.6161686E-002	-9.6657164E-002	-2.645245825216097E-002	-9.3406765E-004	13	2.5568197E-006	3.6539956E+003
2	0	0	1	6.444859837189142E+001	-9.7161666E-002	-9.7693942E-002	-2.648238965538230E-002	-9.3778968E-004	13	2.5871691E-006	3.6890154E+003
2	0	0	1	6.464859836683900E+001	-9.8161645E-002	-9.8512322E-002	-2.640448026242925E-002	-9.4150327E-004	13	2.6011667E-006	3.7308943E+003
2	0	0	1	6.484859836178657E+001	-9.9161617E-002	-9.9581957E-002	-2.655227976331659E-002	-9.4521599E-004	13	2.6441280E-006	3.7504109E+003
2	0	0	1	6.504859835673415E+001	-1.0016160E-001	-1.0080636E-001	-2.661548265495695E-002	-9.4892783E-004	13	2.6830098E-006	3.7875081E+003
2	0	0	1	6.524859835168172E+001	-1.0116157E-001	-1.0172651E-001	-2.664274772705172E-002	-9.5264165E-004	13	2.7102737E-006	3.8181689E+003
2	0	0	1	6.544859834662930E+001	-1.0216154E-001	-1.0240603E-001	-2.662841686076112E-002	-9.5636176E-004	13	2.7269105E-006	3.8457424E+003
2	0	0	1	6.564859834157687E+001	-1.0316152E-001	-1.0354032E-001	-2.669464724054960E-002	-9.6007541E-004	13	2.7639721E-006	3.8786921E+003
2	0	0	1	6.584849833652697E+001	-1.0416118E-001	-1.0486608E-001	-2.687409522284768E-002	-9.6378359E-004	13	2.8181810E-006	3.9021250E+003
2	0	0	0	6.604839833147707E+001	-1.0516149E-001	-1.0551950E-001	-2.718785841782445E-002	-9.6749433E-004	13	2.8688492E-006	3.8811257E+003
2	0	0	0	6.624839832642465E+001	-1.0616146E-001	-1.0672058E-001	-2.731019818243020E-002	-9.7120617E-004	13	2.9145601E-006	3.9077190E+003
2	0	0	0	6.644839832137222E+001	-1.0716144E-001	-1.0781354E-001	-2.736112040936389E-002	-9.7492395E-004	13	2.9498995E-006	3.9403921E+003
2	0	0	0	6.664839831631980E+001	-1.0816141E-001	-1.0870930E-001	-2.739221917448442E-002	-9.7864948E-004	13	2.9777889E-006	3.9686196E+003
2	0	0	0	6.684839831126737E+001	-1.0916139E-001	-1.0964536E-001	-2.761704801442413E-002	-9.8239351E-004	13	3.0280812E-006	3.9702056E+003
2	0	0	0	6.704839830621495E+001	-1.1016138E-001	-1.1048177E-001	-2.757928384570391E-002	-9.8613102E-004	13	3.0470080E-006	4.0059695E+003
2	0	0	0	6.724839830116252E+001	-1.1116134E-001	-1.1176236E-001	-2.752559251614468E-002	-9.8986202E-004	13	3.0763251E-006	4.0603071E+003
2	0	0	0	6.744839829611010E+001	-1.1216132E-001	-1.1302492E-001	-2.767147560516281E-002	-9.9359220E-004	13	3.1275663E-006	4.0845281E+003
2	0	0	0	6.764839829105767E+001	-1.1316131E-001	-1.1384014E-001	-2.770680812099835E-002	-9.9732890E-004	13	3.1541470E-006	4.1087427E+003
2	0	0	0	6.784839828600525E+001	-1.1416128E-001	-1.1450800E-001	-2.772515378507023E-002	-1.0010620E-003	13	3.1747518E-006	4.1301123E+003
2	0	0	0	6.804839828095282E+001	-1.1516126E-001	-1.1545252E-001	-2.774080073845297E-002	-1.0047941E-003	13	3.2027453E-006	4.1618311E+003
2	0	0	0	6.824839827590040E+001	-1.1616123E-001	-1.1674478E-001	-2.783483704509826E-002	-1.0085297E-003	13	3.2495718E-006	4.1941968E+003
2	0	0	0	6.844839827084797E+001	-1.1716121E-001	-1.1751545E-001	-2.782916516126838E-002	-1.0122674E-003	13	3.2703570E-006	4.2227446E+003
2	0	0	0	6.864839826579555E+001	-1.1816119E-001	-1.1864869E-001	-2.792318945469721E-002	-1.0160110E-003	13	3.3130498E-006	4.2491094E+003
2	0	0	0	6.884839826074312E+001	-1.1916117E-001	-1.1962608E-001	-2.781832582568601E-002	-1.0197512E-003	13	3.3277972E-006	4.3002617E+003
2	0	0	0	6.904839825569070E+001	-1.2016115E-001	-1.2050915E-001	-2.778039270823993E-002	-1.0234972E-003	13	3.3477913E-006	4.3379209E+003
2	0	0	0	6.924839825063827E+001	-1.2116113E-001	-1.2187559E-001	-2.800461067633314E-002	-1.0272429E-003	13	3.4130785E-006	4.3519829E+003
2	0	0	0	6.944839824558585E+001	-1.2216110E-001	-1.2300352E-001	-2.794205428860341E-002	-1.0309990E-003	13	3.4369709E-006	4.4020928E+003
2	0	0	0	6.964839824053342E+001	-1.2316108E-001	-1.2378799E-001	-2.809965109469492E-002	-1.0347557E-003	13	3.4783993E-006	4.4053213E+003
2	0	0	0	6.984839823548100E+001	-1.2416106E-001	-1.2467846E-001	-2.817867207921654E-002	-1.0385163E-003	13	3.5132734E-006	4.4245684E+003
2	0	0	0	7.004839823042857E+001	-1.2516104E-001	-1.2565057E-001	-2.827609316451163E-002	-1.0422784E-003	13	3.5529072E-006	4.4437031E+003
2	0	0	0	7.024839822537615E+001	-1.2616102E-001	-1.2663008E-001	-2.831209352363506E-002	-1.0460436E-003	13	3.5851629E-006	4.4726499E+003
2	0	0	0	7.044839822032372E+001	-1.2716100E-001	-1.2776437E-001	-2.838540866246653E-002	-1.0498121E-003	13	3.6266440E-006	4.5010581E+003
2	0	0	0	7.064839821527130E+001	-1.2816097E-001	-1.2862092E-001	-2.839971880392592E-002	-1.0535878E-003	13	3.6527981E-006	4.5289507E+003
2	0	0	0	7.084839821021887E+001	-1.2916094E-001	-1.2963967E-001	-2.851446257437451E-002	-1.0573696E-003	13	3.6966055E-006	4.5464531E+003
2	0	0	0	7.104839820516645E+001	-1.3016091E-001	-1.3073157E-001	-2.856528642930539E-002	-1.0611513E-003	13	3.7343848E-006	4.5765889E+003
2	0	0	0	7.124839820011402E+001	-1.3116090E-001	-1.3173229E-001	-2.863033381216806E-002	-1.0649374E-003	13	3.7715392E-006	4.6011440E+003
2	0	0	0	7.144839819506160E+001	-1.3216089E-001	-1.3246693E-001	-2.862377368576841E-002	-1.0687253E-003	13	3.7917034E-006	4.6278638E+003
2	0	0	0	7.164839819000917E+001	-1.3316086E-001	-1.3379203E-001	-2.850131317233994E-002	-1.0725195E-003	13	3.8132484E-006	4.6942407E+003
2	0	0	0	7.184839818495675E+001	-1.3416083E-001	-1.3486482E-001	-2.832955579973473E-002	-1.0763151E-003	13	3.8206604E-006	4.7605698E+003
2	0	0	0	7.204839817990432E+001	-1.3516080E-001	-1.3556343E-001	-2.827612643870334E-002	-1.0801159E-003	13	3.8332087E-006	4.7942715E+003
2	0	0	0	7.224839817485190E+001	-1.3616079E-001	-1.3649951E-001	-2.833815000432827E-002	-1.0839240E-003	13	3.8681437E-006	4.8168110E+003
2	0	0	0	7.244839816979948E+001	-1.3716078E-001	-1.3776842E-001	-2.841861129742615E-002	-1.0877337E-003	13	3.9151873E-006	4.8478237E+003
2	0	0	0	7.264839816474705E+001	-1.3816075E-001	-1.3866313E-001	-2.861345621948319E-002	-1.0915491E-003	13	3.9676315E-006	4.8460811E+003
2	0	0	0	7.284839815969463E+001	-1.3916072E-001	-1.3960342E-001	-2.866356156987104E-002	-1.0953689E-003	13	4.0015311E-006	4.8704146E+003
2	0	0	0	7.304839815464220E+001	-1.4016071E-001	-1.4079709E-001	-2.820929963919894E-002	-1.0991825E-003	13	3.9717875E-006	4.9911587E+003
2	0	0	0	7.324839814958978E+001	-1.4116068E-001	-1.4166635E-001	-2.835279406188806E-002	-1.1030002E-003	13	4.0166369E-006	4.9965571E+003
2	0	0	0	7.344839814453735E+001	-1.4216067E-001	-1.4262998E-001	-2.858673105261311E-002	-1.1068276E-003	13	4.0773248E-006	4.9893770E+003
2	0	0	0	7.364839813948493E+001	-1.4316064E-001	-1.4371021E-001	-2.856119600591378E-002	-1.1106613E-003	13	4.1045355E-006	5.0316592E+003
2	0	0	0	7.384839813443250E+001	-1.4416061E-001	-1.4486040E-001	-2.864440570056412E-002	-1.1145021E-003	13	4.1494400E-006	5.0571968E+003
2	0	0	0	7.404839812938008E+001	-1.4516059E-001	-1.4573817E-001	-2.869544140075886E-002	-1.1183514E-003	13	4.1820213E-006	5.0787915E+003
2	0	0	0	7.424839812432765E+001	-1.4616057E-001	-1.4668694E-001	-2.878333147258283E-002	-1.1222067E-003	13	4.2221391E-006	5.0962461E+003
2	0	0	0	7.444839811927523E+001	-1.4716054E-001	-1.4769824E-001	-2.890125372422780E-002	-1.1260707E-003	13	4.2686643E-006	5.1104438E+003
2	0	0	1	7.464839811422280E+001	-1.4816064E-001	-1.4866750E-001	-2.901652149270273E-002	-1.1299422E-003	13	4.3138139E-006	5.1235464E+003
2	0	0	1	7.484829810917290E+001	-1.4916083E-001	-1.4972751E-001	-2.945503937762012E-002	-1.1338203E-003	13	4.4102298E-006	5.0832559E+003
2	0	0	1	7.504819810412300E+001	-1.5016048E-001	-1.5069725E-001	-2.967426599459536E-002	-1.1377081E-003	13	4.4718304E-006	5.0783818E+003
2	0	0	1	7.524819809907058E+001	-1.5116045E-001	-1.5155591E-001	-2.963153525469953E-002	-1.1416071E-003	13	4.4908343E-006	5.1146831E+003
2	0	0	1	7.544819809401815E+001	-1.5216042E-001	-1.5274745E-001	-2.971902848860182E-002	-1.1455123E-003	13	4.5395059E-006	5.1397188E+003
2	0	0	1	7.564819808896573E+001	-1.5316039E-001	-1.5357962E-001	-2.979736467675553E-002	-1.1494306E-003	13	4.5762681E-006	5.1541343E+003
2	0	0	1	7.584819808391330E+001	-1.5416040E-001	-1.5448812E-001	-2.993081595332614E-002	-1.1533651E-003	13	4.6239552E-006	5.1615068E+003
2	0	0	1	7.604819807886088E+001	-1.5516037E-001	-1.5566163E-001	-3.000026210285123E-002	-1.1573120E-003	13	4.6698897E-006	5.1886758E+003
2	0	0	1	7.624819807380845E+001	-1.5616034E-001	-1.5674399E-001	-3.011516241917422E-002	-1.1612750E-003	13	4.7203707E-006	5.2048198E+003
2	0	0	1	7.644819806875603E+001	-1.5716033E-001	-1.5756343E-001	-3.017046551332059E-002	-1.1652533E-003	13	4.7537619E-006	5.2224395E+003
2	0	0	1	7.664819806370360E+001	-1.5816030E-001	-1.5867227E-001	-3.041743536668795E-002	-1.1692487E-003	13	4.8264037E-006	5.2164907E+003
2	0	0	1	7.684819805865118E+001	-1.5916029E-001	-1.5981400E-001	-3.049066164419945E-002	-1.1732633E-003	13	4.8728348E-006	5.2414082E+003
2	0	0	1	7.704819805359875E+001	-1.6016026E-001	-1.6067161E-001	-3.052594715437906E-002	-1.1772979E-003	13	4.9046530E-006	5.2634438E+003
2	0	0	1	7.724819804854633E+001	-1.6116025E-001	-1.6178046E-001	-3.041053074121669E-002	-1.1813568E-003	13	4.9198297E-006	5.3198828E+003
2	0	0	1	7.744819804349390E+001	-1.6216020E-001	-1.6270380E-001	-3.049418150685947E-002	-1.1854407E-003	13	4.9615192E-006	5.3355684E+003
2	0	0	1	7.764819803844148E+001	-1.6316019E-001	-1.6372359E-001	-3.060224286096803E-002	-1.1895457E-003	13	5.0103090E-006	5.3500518E+003
2	0	0	1	7.784819803338905E+001	-1.6416016E-001	-1.6452396E-001	-3.088452662985409E-002	-1.1936844E-003	13	5.0812446E-006	5.3270674E+003
2	0	0	1	7.804819802833663E+001	-1.6516013E-001	-1.6573988E-001	-3.108152102276718E-002	-1.1978530E-003	13	5.1514476E-006	5.3324248E+003
2	0	0	1	7.824819802328420E+001	-1.6616012E-001	-1.6674590E-001	-3.127359845406252E-002	-1.2020563E-003	13	5.2147443E-006	5.3318423E+003
2	0	0	1	7.844819801823178E+001	-1.6716011E-001	-1.6777843E-001	-3.156375495110834E-002	-1.2062966E-003	13	5.2957175E-006	5.3155410E+003
2	0	0	1	7.864819801317935E+001	-1.6816007E-001	-1.6865090E-001	-3.182509538686947E-002	-1.2105744E-003	13	5.3673307E-006	5.2993052E+003
2	0	0	1	7.884819800812693E+001	-1.6916005E-001	-1.6983394E-001	-3.198499733486060E-002	-1.2148961E-003	13	5.4321381E-006	5.3098003E+003
2	0	0	1	7.904819800307450E+001	-1.7016001E-001	-1.7070639E-001	-3.220831711017358E-002	-1.2192627E-003	13	5.4981656E-006	5.3000718E+003
2	0	0	1	7.924819799802208E+001	-1.7116000E-001	-1.7142406E-001	-3.246103504898623E-002	-1.2236799E-003	13	5.5646024E-006	5.2809180E+003
2	0	0	1	7.944819799296965E+001	-1.7215998E-001	-1.7271422E-001	-3.281633496308767E-002	-1.2281486E-003	13	5.6678477E-006	5.2630562E+003
2	0	0	1	7.964819798791723E+001	-1.7315996E-001	-1.7370433E-001	-3.325024673603305E-002	-1.2326791E-003	13	5.7757115E-006	5.2241514E+003
2	0	0	1	7.984819798286480E+001	-1.7415994E-001	-1.7465098E-001	-3.398758044298489E-002	-1.2372697E-003	13	5.9359645E-006	5.1386704E+003
2	0	0	1	8.004819797781238E+001	-1.7515992E-001	-1.7557326E-001	-3.393772341994183E-002	-1.2419305E-003	13	5.9585568E-006	5.1733955E+003
2	0	0	1	8.024819797275995E+001	-1.7615989E-001	-1.7676584E-001	-3.432543984722020E-002	-1.2466636E-003	13	6.0675652E-006	5.1497036E+003
2	0	0	1	8.044819796770753E+001	-1.7715988E-001	-1.7756729E-001	-3.466581085711606E-002	-1.2514770E-003	13	6.1555143E-006	5.1222598E+003
2	0	0	1	8.064819796265510E+001	-1.7815985E-001	-1.7863055E-001	-3.520321380848551E-002	-1.2563776E-003	13	6.2883691E-006	5.0742681E+003
2	0	0	1	8.084819795760268E+001	-1.7915982E-001	-1.7988464E-001	-3.565844252960060E-002	-1.2613760E-003	13	6.4144060E-006	5.0446577E+003
2	0	0	1	8.104819795255025E+001	-1.8015982E-001	-1.8071681E-001	-3.623108454222868E-002	-1.2664712E-003	13	6.5475660E-006	4.9878940E+003
2	0	0	1	8.124819794749783E+001	-1.8115978E-001	-1.8167828E-001	-3.700596188372451E-002	-1.2716762E-003	13	6.7231795E-006	4.9094326E+003
2	0	0	1	8.144819794244540E+001	-1.8215975E-001	-1.8268856E-001	-3.762645684150964E-002	-1.2770015E-003	13	6.8739232E-006	4.8553218E+003
2	0	0	1	8.164819793739298E+001	-1.8315975E-001	-1.8375817E-001	-3.836497031057229E-002	-1.2824499E-003	13	7.0498768E-006	4.7897383E+003
2	0	0	1	8.184819793234055E+001	-1.8415973E-001	-1.8466350E-001	-3.916273910321011E-002	-1.2880388E-003	13	7.2319285E-006	4.7152856E+003
2	0	0	1	8.204819792728813E+001	-1.8515970E-001	-1.8567060E-001	-3.985381248811481E-002	-1.2937756E-003	13	7.3996812E-006	4.6587915E+003
2	0	0	1	8.224819792223570E+001	-1.8615967E-001	-1.8676777E-001	-4.078218243596954E-002	-1.2996731E-003	13	7.6167971E-006	4.5796416E+003
2	0	0	1	8.244819791718328E+001	-1.8715964E-001	-1.8769324E-001	-4.163186191507284E-002	-1.3057477E-003	13	7.8140192E-006	4.5084038E+003
2	0	0	1	8.264819791213085E+001	-1.8815963E-001	-1.8869182E-001	-4.261434067868526E-002	-1.3120055E-003	13	8.0409773E-006	4.4278950E+003
2	0	0	1	8.284819790707843E+001	-1.8915960E-001	-1.8974981E-001	-4.383550725704144E-002	-1.3184623E-003	13	8.3177792E-006	4.3286782E+003
2	0	0	1	8.304819790202600E+001	-1.9015959E-001	-1.9069541E-001	-4.499298505339344E-002	-1.3251365E-003	13	8.5799556E-006	4.2383364E+003
2	0	0	1	8.324819789697358E+001	-1.9115955E-001	-1.9169402E-001	-4.636632728912043E-002	-1.3320445E-003	13	8.8881479E-006	4.1343369E+003
2	0	0	1	8.344819789192115E+001	-1.9215953E-001	-1.9265339E-001	-4.762675047956633E-002	-1.3392174E-003	13	9.1754546E-006	4.0450669E+003
2	0	0	1	8.364809788687126E+001	-1.9315971E-001	-1.9371054E-001	-4.907781066914985E-002	-1.3466589E-003	13	9.5068890E-006	3.9470085E+003
2	0	0	0	8.384799788182136E+001	-1.9415948E-001	-1.9480854E-001	-5.068670693138733E-002	-1.3543799E-003	13	9.8742039E-006	3.8433853E+003
2	0	0	0	8.404799787676893E+001	-1.9515947E-001	-1.9559194E-001	-5.241926178143941E-002	-1.3624249E-003	13	1.0252786E-005	3.7312991E+003
2	0	0	0	8.424799787171651E+001	-1.9615947E-001	-1.9667006E-001	-5.404130829436948E-002	-1.3708124E-003	13	1.0628307E-005	3.6392542E+003
2	0	0	0	8.444799786666408E+001	-1.9715941E-001	-1.9774923E-001	-5.610167854539472E-002	-1.3795791E-003	13	1.1094064E-005	3.5248362E+003
2	0	0	0	8.464799786161166E+001	-1.9815941E-001	-1.9895771E-001	-5.821167078827949E-002	-1.3887484E-003	13	1.1581661E-005	3.4178320E+003
2	0	0	0	8.484799785655923E+001	-1.9915937E-001	-1.9978248E-001	-6.046320283320838E-002	-1.3983538E-003	13	1.2079488E-005	3.3041995E+003
2	0	0	0	8.504799785150681E+001	-2.0015937E-001	-2.0062420E-001	-6.290990773476468E-002	-1.4084245E-003	13	1.2621250E-005	3.1890715E+003
2	0	0	0	8.524799784645438E+001	-2.0115936E-001	-2.0173623E-001	-6.549786713212957E-002	-1.4189954E-003	13	1.3213293E-005	3.0800427E+003
2	0	0	0	8.544799784140196E+001	-2.0215932E-001	-2.0264259E-001	-6.814830177917641E-002	-1.4301107E-003	13	1.3809748E-005	2.9735530E+003
2	0	0	0	8.564799783634953E+001	-2.0315930E-001	-2.0379490E-001	-7.116952313684655E-002	-1.4418116E-003	13	1.4503986E-005	2.8635137E+003
2	0	0	0	8.584799783129711E+001	-2.0415926E-001	-2.0469706E-001	-7.430089111207538E-002	-1.4541342E-003	13	1.5209173E-005	2.7549744E+003
2	0	0	0	8.604799782624468E+001	-2.0515925E-001	-2.0581332E-001	-7.777872607650471E-002	-1.4671283E-003	13	1.6007898E-005	2.6461389E+003
2	0	0	0	8.624799782119226E+001	-2.0615923E-001	-2.0669109E-001	-8.146958179083430E-002	-1.4808435E-003	13	1.6839036E-005	2.5370339E+003
2	0	0	0	8.644799781613983E+001	-2.0715921E-001	-2.0768754E-001	-8.535953412516673E-002	-1.4953359E-003	13	1.7728113E-005	2.4330913E+003
2	0	0	0	8.664799781108741E+001	-2.0815918E-001	-2.0869994E-001	-8.963672316035520E-002	-1.5106703E-003	13	1.8707178E-005	2.3282861E+003
2	0	0	0	8.684799780603498E+001	-2.0915915E-001	-2.0977803E-001	-9.423100860956274E-002	-1.5268927E-003	13	1.9767594E-005	2.2262102E+003
2	0	0	0	8.704799780098256E+001	-2.1015912E-001	-2.1053706E-001	-9.916717643572864E-002	-1.5440868E-003	13	2.0878366E-005	2.1230520E+003
2	0	0	0	8.726799779542489E+001	-2.1125908E-001	-2.1152930E-001	-1.021967808061328E-001	-1.5645251E-003	13	2.1617614E-005	2.0698235E+003
2	0	0	0	8.748799778986722E+001	-2.1235910E-001	-2.1267630E-001	-1.086824822752751E-001	-1.5862295E-003	12	2.3114188E-005	1.9568591E+003
2	0	0	0	8.768799778481480E+001	-2.1335904E-001	-2.1374278E-001	-1.150864023322458E-001	-1.6070559E-003	12	2.4598887E-005	1.8572374E+003
2	0	0	0	8.788799777976237E+001	-2.1435903E-001	-2.1492583E-001	-1.220432548010786E-001	-1.6291727E-003	12	2.6230247E-005	1.7610627E+003
2	0	0	0	8.808799777470995E+001	-2.1535900E-001	-2.1577285E-001	-1.294625401803096E-001	-1.6526849E-003	12	2.7934502E-005	1.6666818E+003
2	0	0	0	8.828799776965752E+001	-2.1635897E-001	-2.1671419E-001	-1.375310594340589E-001	-1.6776875E-003	12	2.9804933E-005	1.5757472E+003
2	0	0	0	8.848799776460510E+001	-2.1735898E-001	-2.1768947E-001	-1.459011886260408E-001	-1.7043138E-003	12	3.1761152E-005	1.4920336E+003
2	0	0	0	8.868799775955267E+001	-2.1835895E-001	-2.1870822E-001	-1.552543230724366E-001	-1.7326755E-003	12	3.3955395E-005	1.4087094E+003
2	0	0	0	8.888799775450025E+001	-2.1935894E-001	-2.1968880E-001	-1.651278604909594E-001	-1.7628927E-003	12	3.6276742E-005	1.3304164E+003
2	0	0	0	8.908799774944782E+001	-2.2035891E-001	-2.2066832E-001	-1.754155515486167E-001	-1.7951018E-003	12	3.8708655E-005	1.2579746E+003
2	0	0	0	8.928799774439540E+001	-2.2135888E-001	-2.2170508E-001	-1.870892567236959E-001	-1.8294542E-003	12	4.1478637E-005	1.1850231E+003
2	0	0	0	8.948799773934297E+001	-2.2235887E-001	-2.2288390E-001	-1.985004439964775E-001	-1.8660451E-003	12	4.4242552E-005	1.1228383E+003
2	0	0	0	8.968799773429055E+001	-2.2335884E-001	-2.2385493E-001	-2.114258079077889E-001	-1.9050287E-003	12	4.7328711E-005	1.0587871E+003
2	0	0	0	8.988799772923812E+001	-2.2435883E-001	-2.2468606E-001	-2.256254917665341E-001	-1.9466461E-003	12	5.0694904E-005	9.9583630E+002
2	0	0	0	9.008799772418570E+001	-2.2535880E-001	-2.2569950E-001	-2.398083286081141E-001	-1.9910412E-003	12	5.4124619E-005	9.4116620E+002
2	0	0	0	9.028799771913327E+001	-2.2635877E-001	-2.2675639E-001	-2.549448391135414E-001	-2.0383291E-003	12	5.7810372E-005	8.8943317E+002
2	0	0	0	9.048799771408085E+001	-2.2735877E-001	-2.2765642E-001	-2.718268999905926E-001	-2.0887998E-003	12	6.1883140E-005	8.3750513E+002
2	0	0	0	9.068799770902842E+001	-2.2835872E-001	-2.2875150E-001	-2.890847125375764E-001	-2.1426319E-003	12	6.6128559E-005	7.9129572E+002
2	0	0	0	9.088799770397600E+001	-2.2935872E-001	-2.2984551E-001	-3.077938587081670E-001	-2.1999772E-003	12	7.0745038E-005	7.4675146E+002
2	0	0	0	9.108799769892357E+001	-2.3035866E-001	-2.3067768E-001	-3.280831362562191E-001	-2.2612009E-003	12	7.5681455E-005	7.0310742E+002
2	0	0	0	9.128799769387115E+001	-2.3135866E-001	-2.3159993E-001	-3.493612882197610E-001	-2.3265730E-003	12	8.0912047E-005	6.6292383E+002
2	0	0	0	9.148799768881872E+001	-2.3235862E-001	-2.3274907E-001	-3.716338106162862E-001	-2.3962248E-003	12	8.6497428E-005	6.2628607E+002
2	0	0	0	9.168799768376630E+001	-2.3335859E-001	-2.3373920E-001	-3.953275179993057E-001	-2.4704216E-003	12	9.2403534E-005	5.9125458E+002
2	0	0	0	9.188799767871387E+001	-2.3435861E-001	-2.3475054E-001	-4.212182931424584E-001	-2.5495363E-003	12	9.8881224E-005	5.5731323E+002
2	0	0	0	9.208799767366145E+001	-2.3535857E-001	-2.3582228E-001	-4.486456996467734E-001	-2.6339421E-003	12	1.0580065E-004	5.2563141E+002
2	0	0	0	9.228799766860902E+001	-2.3635855E-001	-2.3674773E-001	-4.778558665299415E-001	-2.7240468E-003	12	1.1313129E-004	4.9543753E+002
2	0	0	1	9.248789766355912E+001	-2.3735841E-001	-2.3771439E-001	-5.096743547795501E-001	-2.8201337E-003	12	1.2115693E-004	4.6640448E+002
2	0	0	1	9.268779765850923E+001	-2.3835850E-001	-2.3868980E-001	-5.434390929930952E-001	-2.9226986E-003	12	1.2971337E-004	4.3922089E+002
2	0	0	1	9.288779765345680E+001	-2.3935848E-001	-2.3977958E-001	-5.788110297494260E-001	-3.0322038E-003	12	1.3878706E-004	4.1426227E+002
2	0	0	1	9.308779764840438E+001	-2.4035844E-001	-2.4079512E-001	-6.167377986419353E-001	-3.1489891E-003	12	1.4850745E-004	3.9043353E+002
2	0	0	1	9.328779764335195E+001	-2.4135846E-001	-2.4184145E-001	-6.557601879302268E-001	-3.2734335E-003	12	1.5858999E-004	3.6879556E+002
2	0	0	1	9.348779763829953E+001	-2.4235842E-001	-2.4266408E-001	-6.983668815361478E-001	-3.4060236E-003	12	1.6946856E-004	3.4747363E+002
2	0	0	1	9.368779763324710E+001	-2.4335839E-001	-2.4384288E-001	-7.434217458223404E-001	-3.5473362E-003	12	1.8127810E-004	3.2800073E+002
2	0	0	1	9.388779762819468E+001	-2.4435839E-001	-2.4485210E-001	-7.893077322533166E-001	-3.6977206E-003	12	1.9326365E-004	3.1021118E+002
2	0	0	1	9.408779762314225E+001	-2.4535833E-001	-2.4567156E-001	-8.394265679511621E-001	-3.8576382E-003	12	2.0622322E-004	2.9266592E+002
2	0	0	1	9.428779761808983E+001	-2.4635834E-001	-2.4671993E-001	-8.966779528257494E-001	-4.0283147E-003	12	2.2122831E-004	2.7514886E+002
2	0	0	1	9.448779761303740E+001	-2.4735828E-001	-2.4776734E-001	-9.514827621412225E-001	-4.2101373E-003	12	2.3574635E-004	2.6040131E+002
2	0	0	1	9.468779760798498E+001	-2.4835828E-001	-2.4877548E-001	-1.010098227846715E+000	-4.4032373E-003	12	2.5128768E-004	2.4628841E+002
2	0	0	1	9.490779760242731E+001	-2.4945822E-001	-2.4970977E-001	-1.073865751884194E+000	-4.6302592E-003	12	2.6815478E-004	2.3253351E+002
2	0	0	1	9.512779759686964E+001	-2.5055823E-001	-2.5105041E-001	-1.149185998428637E+000	-4.8713442E-003	11	2.8850362E-004	2.1845934E+002
2	0	0	1	9.532779759181722E+001	-2.5155818E-001	-2.5198540E-001	-1.220033070203462E+000	-5.1052119E-003	11	3.0743051E-004	2.0653981E+002
2	0	0	1	9.552779758676479E+001	-2.5255820E-001	-2.5290346E-001	-1.290700218938044E+000	-5.3532161E-003	11	3.2642257E-004	1.9594284E+002
2	0	0	1	9.572779758171237E+001	-2.5355816E-001	-2.5383529E-001	-1.368565341259211E+000	-5.6160842E-003	11	3.4739019E-004	1.8547546E+002
2	0	0	1	9.592779757665994E+001	-2.5455812E-001	-2.5484660E-001	-1.448117567965447E+000	-5.8946526E-003	11	3.6904783E-004	1.7598474E+002
2	0	0	1	9.612779757160752E+001	-2.5555813E-001	-2.5596076E-001	-1.531375818892204E+000	-6.1895018E-003	11	3.9197213E-004	1.6714432E+002
2	0	0	1	9.632779756655509E+001	-2.5655809E-001	-2.5681940E-001	-1.628052997126204E+000	-6.5023126E-003	11	4.1811558E-004	1.5774634E+002
2	0	0	1	9.652779756150267E+001	-2.5755808E-001	-2.5772262E-001	-1.713932948824770E+000	-6.8333885E-003	11	4.4171928E-004	1.5036914E+002
2	0	0	1	9.672779755645024E+001	-2.5855803E-001	-2.5895336E-001	-1.804640437216575E+000	-7.1821171E-003	11	4.6731770E-004	1.4349306E+002
2	0	0	1	9.692779755139782E+001	-2.5955802E-001	-2.5997952E-001	-1.903370779320227E+000	-7.5497665E-003	11	4.9483741E-004	1.3658900E+002
2	0	0	1	9.712779754634539E+001	-2.6055801E-001	-2.6080108E-001	-2.004791470443037E+000	-7.9374388E-003	11	5.2285177E-004	1.3008888E+002
2	0	0	1	9.732779754129297E+001	-2.6155797E-001	-2.6191416E-001	-2.113406183227664E+000	-8.3461544E-003	11	5.5353099E-004	1.2392988E+002
2	0	0	1	9.752779753624054E+001	-2.6255795E-001	-2.6304531E-001	-2.227305216347290E+000	-8.7771118E-003	11	5.8588217E-004	1.1810025E+002
2	0	0	1	9.772779753118812E+001	-2.6355791E-001	-2.6385525E-001	-2.347710552754176E+000	-9.2315003E-003	11	6.1945576E-004	1.1238832E+002
2	0	0	1	9.792779752613569E+001	-2.6455793E-001	-2.6488242E-001	-2.469954769813423E+000	-9.7102122E-003	11	6.5424759E-004	1.0724181E+002
2	0	0	1	9.812779752108327E+001	-2.6555791E-001	-2.6602840E-001	-2.588141990035716E+000	-1.0212865E-002	11	6.8851927E-004	1.0278741E+002
2	0	0	1	9.832779751603084E+001	-2.6655784E-001	-2.6685315E-001	-2.707870888264004E+000	-1.0739306E-002	11	7.2260387E-004	9.8547218E+001
2	0	0	1	9.852779751097842E+001	-2.6755786E-001	-2.6776591E-001	-2.837138546077419E+000	-1.1290670E-002	11	7.5968896E-004	9.4378860E+001
2	0	0	1	9.872779750592599E+001	-2.6855785E-001	-2.6897970E-001	-2.961168190688220E+000	-1.1867389E-002	11	7.9649413E-004	9.0835670E+001
2	0	0	1	9.892779750087357E+001	-2.6955780E-001	-2.6998040E-001	-3.090735097962721E+000	-1.2469402E-002	11	8.3443790E-004	8.7351517E+001
2	0	0	1	9.912779749582114E+001	-2.7055779E-001	-2.7085075E-001	-3.213817140176172E+000	-1.3096638E-002	11	8.7046478E-004	8.4276962E+001
2	0	0	1	9.932779749076872E+001	-2.7155775E-001	-2.7180800E-001	-3.361114330876987E+000	-1.3750968E-002	11	9.1357774E-004	8.0868416E+001
2	0	0	1	9.952779748571629E+001	-2.7255774E-001	-2.7308646E-001	-3.512361626066877E+000	-1.4435607E-002	11	9.5917837E-004	7.7750099E+001
2	0	0	1	9.972779748066387E+001	-2.7355772E-001	-2.7389848E-001	-3.640723922862213E+000	-1.5147660E-002	11	9.9718873E-004	7.5231873E+001
2	0	0	1	9.992779747561144E+001	-2.7455768E-001	-2.7476460E-001	-3.770412795769396E+000	-1.5885632E-002	11	1.0359760E-003	7.2873878E+001
2	0	0	1	1.001277974705590E+002	-2.7555767E-001	-2.7591375E-001	-3.906052313390227E+000	-1.6650027E-002	11	1.0777335E-003	7.0637497E+001
2	0	0	1	1.003277974655066E+002	-2.7655762E-001	-2.7692187E-001	-4.051728342497142E+000	-1.7442638E-002	11	1.1220122E-003	6.8346603E+001
2	0	0	1	1.005277974604542E+002	-2.7755764E-001	-2.7785155E-001	-4.196862602619063E+000	-1.8264428E-002	11	1.1661048E-003	6.6204590E+001
2	0	0	1	1.007277974554017E+002	-2.7855757E-001	-2.7879077E-001	-4.333460809726298E+000	-1.9114302E-002	11	1.2081289E-003	6.4334442E+001
2	0	0	1	1.009277974503493E+002	-2.7955759E-001	-2.7995473E-001	-4.477233098612899E+000	-1.9992217E-002	11	1.2534226E-003	6.2528515E+001
2	0	0	1	1.011277974452969E+002	-2.8055757E-001	-2.8096929E-001	-4.620923594654009E+000	-2.0898901E-002	11	1.2983376E-003	6.0803707E+001
2	0	0	1	1.013277974402445E+002	-2.8155777E-001	-2.8212419E-001	-4.760445029675104E+000	-2.1833958E-002	11	1.3430367E-003	5.9264248E+001
2	0	0	1	1.015276974351946E+002	-2.8255785E-001	-2.8275633E-001	-4.903791097811379E+000	-2.2796730E-002	11	1.3865780E-003	5.7660763E+001
2	0	0	0	1.017275974301447E+002	-2.8355747E-001	-2.8392163E-001	-5.053773806174867E+000	-2.3788882E-002	11	1.4348757E-003	5.6180122E+001
2	0	0	0	1.019275974250922E+002	-2.8455746E-001	-2.8489265E-001	-5.222273710295724E+000	-2.4813687E-002	11	1.4877873E-003	5.4553375E+001
2	0	0	0	1.021275974200398E+002	-2.8555745E-001	-2.8586686E-001	-5.368406854012385E+000	-2.5869716E-002	11	1.5346496E-003	5.3249851E+001
2	0	0	0	1.023275974149874E+002	-2.8655744E-001	-2.8681567E-001	-5.526816683629207E+000	-2.6956085E-002	11	1.5851776E-003	5.1895275E+001
2	0	0	0	1.025275974099350E+002	-2.8755742E-001	-2.8780258E-001	-5.690026239709507E+000	-2.8074868E-002	11	1.6376042E-003	5.0580185E+001
2	0	0	0	1.027275974048825E+002	-2.8855735E-001	-2.8895384E-001	-5.835935514665238E+000	-2.9224373E-002	11	1.6863160E-003	4.9512856E+001
2	0	0	0	1.029275973998301E+002	-2.8955737E-001	-2.8997472E-001	-5.971050448023007E+000	-3.0401908E-002	11	1.7314537E-003	4.8563435E+001
2	0	0	0	1.031275973947777E+002	-2.9055732E-001	-2.9089275E-001	-6.122370038815077E+000	-3.1608105E-002	11	1.7809530E-003	4.7513096E+001
2	0	0	0	1.033275973897253E+002	-2.9155731E-001	-2.9186803E-001	-6.264063802942680E+000	-3.2843605E-002	11	1.8282799E-003	4.6594040E+001
2	0	0	0	1.035275973846728E+002	-2.9255730E-001	-2.9292917E-001	-6.402424913550178E+000	-3.4107085E-002	11	1.8754570E-003	4.5752850E+001
2	0	0	0	1.037275973796204E+002	-2.9355726E-001	-2.9389811E-001	-6.540019354176877E+000	-3.5398349E-002	11	1.9220993E-003	4.4938416E+001
2	0	0	0	1.039275973745680E+002	-2.9455724E-001	-2.9503343E-001	-6.670708591435250E+000	-3.6716253E-002	11	1.9680820E-003	4.4228199E+001
2	0	0	0	1.041275973695156E+002	-2.9555720E-001	-2.9580200E-001	-6.831411216129240E+000	-3.8063329E-002	11	2.0207451E-003	4.3300278E+001
2	0	0	0	1.043275973644631E+002	-2.9655719E-001	-2.9676986E-001	-6.974397139754704E+000	-3.9440911E-002	11	2.0697908E-003	4.2551327E+001
2	0	0	0	1.045275973594107E+002	-2.9755715E-001	-2.9792854E-001	-7.284330037242967E+000	-4.0863719E-002	11	2.1702098E-003	4.0899925E+001
2	0	0	0	1.047275973543583E+002	-2.9855716E-001	-2.9905432E-001	-7.485223485363861E+000	-4.2338453E-002	11	2.2384885E-003	3.9952625E+001
2	0	0	0	1.049275973493059E+002	-2.9955715E-001	-2.9982397E-001	-7.611642747171324E+000	-4.3845091E-002	11	2.2821529E-003	3.9390179E+001
2	0	0	0	1.051275973442534E+002	-3.0055708E-001	-3.0095297E-001	-7.738775824270505E+000	-4.5376878E-002	11	2.3290075E-003	3.8888962E+001
2	0	0	0	1.053275973392010E+002	-3.0155709E-001	-3.0182436E-001	-7.904298184883032E+000	-4.6938654E-002	11	2.3857097E-003	3.8184841E+001
2	0	0	0	1.055275973341486E+002	-3.0255705E-001	-3.0303711E-001	-8.030754344736380E+000	-4.8528720E-002	11	2.4336167E-003	3.7734577E+001
2	0	0	0	1.057275973290962E+002	-3.0355704E-001	-3.0384383E-001	-8.154937589384801E+000	-5.0144169E-002	11	2.4778275E-003	3.7258877E+001
2	0	0	0	1.059275973240437E+002	-3.0455703E-001	-3.0485728E-001	-8.297847786119977E+000	-5.1786255E-002	11	2.5296593E-003	3.6739319E+001
2	0	0	0	1.061275973189913E+002	-3.0555698E-001	-3.0588770E-001	-8.431757936064050E+000	-5.3455647E-002	11	2.5791710E-003	3.6278046E+001
2	0	0	0	1.063275973139389E+002	-3.0655697E-001	-3.0684918E-001	-8.610798520971599E+000	-5.5156652E-002	11	2.6422164E-003	3.5635391E+001
2	0	0	0	1.065275973088865E+002	-3.0755693E-001	-3.0797711E-001	-8.777969099496744E+000	-5.6893084E-002	11	2.7034136E-003	3.5085236E+001
2	0	0	0	1.067275973038340E+002	-3.0855691E-001	-3.0886334E-001	-8.884096288964884E+000	-5.8656223E-002	11	2.7439718E-003	3.4765869E+001
2	0	0	0	1.069275972987816E+002	-3.0955690E-001	-3.0993187E-001	-9.007711336996564E+000	-6.0442396E-002	11	2.7917768E-003	3.4407394E+001
2	0	0	0	1.071275972937292E+002	-3.1055686E-001	-3.1084678E-001	-9.116176352546859E+000	-6.2251545E-002	11	2.8337340E-003	3.4098373E+001
2	0	0	0	1.073275972886768E+002	-3.1155688E-001	-3.1192595E-001	-9.273623708964976E+000	-6.4087339E-002	11	2.8926840E-003	3.3635822E+001
2	0	0	0	1.075275972836243E+002	-3.1255680E-001	-3.1297117E-001	-9.502681453414482E+000	-6.5961428E-002	11	2.9740655E-003	3.2935040E+001
2	0	0	0	1.077275972785719E+002	-3.1355679E-001	-3.1384578E-001	-9.731650612724678E+000	-6.7883641E-002	11	3.0542375E-003	3.2250004E+001
2	0	0	0	1.079275972735195E+002	-3.1455681E-001	-3.1495777E-001	-9.809997425598354E+000	-6.9834374E-002	11	3.0897348E-003	3.2105797E+001
2	0	0	0	1.081275972684671E+002	-3.1555673E-001	-3.1590867E-001	-1.016055475178760E+001	-7.1827449E-002	11	3.2098074E-003	3.1091675E+001
2	0	0	0	1.083275972634146E+002	-3.1655675E-001	-3.1687549E-001	-1.046176020338149E+001	-7.3886752E-002	11	3.3150753E-003	3.0288927E+001
2	0	0	0	1.085275972583622E+002	-3.1755671E-001	-3.1804156E-001	-1.062774492844162E+001	-7.5994432E-002	11	3.3800646E-003	2.9925592E+001
2	0	0	0	1.087275972533098E+002	-3.1855670E-001	-3.1902429E-001	-1.071119150032803E+001	-7.8124598E-002	11	3.4171303E-003	2.9784203E+001
2	0	0	0	1.089275972482574E+002	-3.1955668E-001	-3.1980240E-001	-1.079835400431331E+001	-8.0272272E-002	11	3.4533395E-003	2.9615847E+001
2	0	0	0	1.091275972432049E+002	-3.2055667E-001	-3.2086673E-001	-1.088580916987532E+001	-8.2437016E-002	11	3.4928941E-003	2.9475689E+001
2	0	0	0	1.093675972371420E+002	-3.2175663E-001	-3.2216534E-001	-1.125639878004853E+001	-8.5088052E-002	10	3.6264216E-003	2.8620640E+001
2	0	0	0	1.095675972320896E+002	-3.2275659E-001	-3.2315013E-001	-1.131070575624904E+001	-8.7341696E-002	10	3.6550560E-003	2.8570288E+001
2	0	0	0	1.097675972270372E+002	-3.2375658E-001	-3.2407665E-001	-1.139385754484982E+001	-8.9608923E-002	10	3.6924833E-003	2.8443102E+001
2	0	0	0	1.099675972219848E+002	-3.2475653E-001	-3.2508481E-001	-1.147932191439776E+001	-9.1892451E-002	10	3.7317532E-003	2.8319164E+001
2	0	0	0	1.101675972169323E+002	-3.2575655E-001	-3.2629120E-001	-1.159369500532171E+001	-9.4196849E-002	10	3.7829208E-003	2.8143848E+001
2	0	0	1	1.103673972118850E+002	-3.2675630E-001	-3.2710344E-001	-1.166922206237408E+001	-9.6517272E-002	10	3.8170426E-003	2.8031298E+001
2	0	0	1	1.105673972068325E+002	-3.2775649E-001	-3.2802230E-001	-1.179826029729685E+001	-9.8860726E-002	10	3.8700926E-003	2.7802599E+001
2	0	0	1	1.107673972017801E+002	-3.2875645E-001	-3.2913747E-001	-1.206245259227666E+001	-1.0124556E-001	10	3.9702053E-003	2.7286116E+001
2	0	0	1	1.109673971967277E+002	-3.2975644E-001	-3.2999405E-001	-1.214952126307557E+001	-1.0366291E-001	10	4.0092696E-003	2.7161074E+001
2	0	0	1	1.111673971916753E+002	-3.3075646E-001	-3.3113578E-001	-1.221314365881372E+001	-1.0609571E-001	10	4.0442087E-003	2.7113068E+001
2	0	0	1	1.113673971866228E+002	-3.3175638E-001	-3.3230186E-001	-1.229305602654040E+001	-1.0854304E-001	10	4.0850053E-003	2.7031672E+001
2	0	0	1	1.115673971815704E+002	-3.3275640E-001	-3.3307469E-001	-1.261267635158669E+001	-1.1102976E-001	10	4.2009633E-003	2.6407930E+001
2	0	0	1	1.117673971765180E+002	-3.3375636E-001	-3.3403194E-001	-1.337539916068249E+001	-1.1363389E-001	10	4.4678105E-003	2.4973606E+001
2	0	0	1	1.119673971714656E+002	-3.3475634E-001	-3.3536342E-001	-1.342528498334949E+001	-1.1630961E-001	10	4.5023495E-003	2.4979984E+001
2	0	0	1	1.121673971664131E+002	-3.3575633E-001	-3.3608213E-001	-1.349317191801376E+001	-1.1899789E-001	10	4.5348140E-003	2.4907570E+001
2	0	0	1	1.123673971613607E+002	-3.3675629E-001	-3.3709982E-001	-1.354407833547003E+001	-1.2169795E-001	10	4.5657065E-003	2.4889093E+001
2	0	0	1	1.125673971563083E+002	-3.3775628E-001	-3.3805391E-001	-1.371649710823897E+001	-1.2441995E-001	10	4.6369154E-003	2.4645790E+001
2	0	0	1	1.127673971512559E+002	-3.3875623E-001	-3.3915958E-001	-1.443199928006883E+001	-1.2723699E-001	10	4.8947507E-003	2.3500526E+001
2	0	0	1	1.129673971462034E+002	-3.3975622E-001	-3.4008184E-001	-1.439137538057872E+001	-1.3011503E-001	10	4.8942454E-003	2.3630947E+001
2	0	0	1	1.131673971411510E+002	-3.4075618E-001	-3.4109634E-001	-1.439584313971665E+001	-1.3298970E-001	10	4.9103694E-003	2.3694086E+001
2	0	0	1	1.133673971360986E+002	-3.4175617E-001	-3.4220734E-001	-1.449210292817247E+001	-1.3587451E-001	10	4.9593039E-003	2.3613367E+001
2	0	0	1	1.135673971310462E+002	-3.4275618E-001	-3.4316355E-001	-1.490362515146779E+001	-1.3881288E-001	10	5.1143807E-003	2.3025509E+001
2	0	0	1	1.137673971259937E+002	-3.4375611E-001	-3.4423104E-001	-1.488530938492876E+001	-1.4178805E-001	10	5.1239855E-003	2.3125555E+001
2	0	0	1	1.139673971209413E+002	-3.4475610E-001	-3.4508759E-001	-1.493211225425307E+001	-1.4476572E-001	10	5.1528867E-003	2.3110434E+001
2	0	0	1	1.141673971158889E+002	-3.4575608E-001	-3.4616885E-001	-1.567986812315829E+001	-1.4782265E-001	10	5.4278821E-003	2.2077280E+001
2	0	0	1	1.143673971108365E+002	-3.4675604E-001	-3.4715474E-001	-1.577230486956307E+001	-1.5096675E-001	10	5.4754303E-003	2.2010401E+001
2	0	0	1	1.145673971057840E+002	-3.4775606E-001	-3.4808764E-001	-1.584099819587209E+001	-1.5412369E-001	10	5.5140555E-003	2.1973845E+001
2	0	0	1	1.147673971007316E+002	-3.4875605E-001	-3.4916362E-001	-1.589153628054663E+001	-1.5729429E-001	10	5.5487463E-003	2.1971672E+001
2	0	0	1	1.149673970956792E+002	-3.4975603E-001	-3.5004982E-001	-1.588189379320124E+001	-1.6046673E-001	10	5.5594542E-003	2.2040812E+001
2	0	0	1	1.151673970906268E+002	-3.5075599E-001	-3.5102305E-001	-1.590023993148287E+001	-1.6364127E-001	10	5.5813505E-003	2.2076588E+001
2	0	0	1	1.153673970855743E+002	-3.5175598E-001	-3.5215095E-001	-1.593194544126123E+001	-1.6682090E-001	10	5.6104497E-003	2.2103449E+001
2	0	0	1	1.155673970805219E+002	-3.5275596E-001	-3.5320470E-001	-1.600890103543423E+001	-1.7001173E-001	10	5.6544188E-003	2.2063019E+001
2	0	0	1	1.157673970754695E+002	-3.5375592E-001	-3.5429659E-001	-1.606021863870876E+001	-1.7321542E-001	10	5.6900806E-003	2.2060509E+001
2	0	0	1	1.159673970704171E+002	-3.5475591E-001	-3.5500047E-001	-1.609890204208511E+001	-1.7642723E-001	10	5.7151178E-003	2.2051222E+001
2	0	0	1	1.161673970653646E+002	-3.5575587E-001	-3.5624078E-001	-1.652475214477573E+001	-1.7968734E-001	10	5.8867908E-003	2.1558010E+001
2	0	0	1	1.163673970603122E+002	-3.5675585E-001	-3.5712913E-001	-1.782556013225701E+001	-1.8313333E-001	10	6.3660266E-003	2.0034664E+001
2	0	0	1	1.165673970552598E+002	-3.5775584E-001	-3.5795814E-001	-1.806993505838507E+001	-1.8672433E-001	10	6.4682802E-003	1.9809597E+001
2	0	0	1	1.167673970502074E+002	-3.5875580E-001	-3.5934895E-001	-1.814200148452704E+001	-1.9034010E-001	10	6.5193092E-003	1.9807570E+001
2	0	0	1	1.169673970451549E+002	-3.5975578E-001	-3.6023200E-001	-1.823833291830664E+001	-1.9397342E-001	10	6.5700309E-003	1.9751366E+001
2	0	0	1	1.171673970401025E+002	-3.6075574E-001	-3.6084899E-001	-1.833947367246455E+001	-1.9762824E-001	10	6.6177808E-003	1.9676083E+001
2	0	0	1	1.173673970350501E+002	-3.6175573E-001	-3.6226949E-001	-1.851596662881970E+001	-2.0131041E-001	10	6.7077698E-003	1.9565248E+001
2	0	0	1	1.175673970299977E+002	-3.6275569E-001	-3.6325011E-001	-1.874456647126317E+001	-2.0503598E-001	10	6.8089659E-003	1.9378954E+001
2	0	0	1	1.177673970249452E+002	-3.6375567E-001	-3.6388081E-001	-1.870338282320236E+001	-2.0877688E-001	10	6.8058022E-003	1.9455347E+001
2	0	0	1	1.179673970198928E+002	-3.6475566E-001	-3.6513597E-001	-1.874668466139261E+001	-2.1251829E-001	10	6.8450887E-003	1.9477362E+001
2	0	0	1	1.181673970148404E+002	-3.6575562E-001	-3.6637947E-001	-1.885185289855991E+001	-2.1627633E-001	10	6.9069318E-003	1.9434666E+001
2	0	0	1	1.183673970097880E+002	-3.6675563E-001	-3.6712682E-001	-1.891526090247294E+001	-2.2004800E-001	10	6.9442997E-003	1.9409027E+001
2	0	0	1	1.185673970047355E+002	-3.6775559E-001	-3.6814660E-001	-1.900332295935166E+001	-2.2383697E-001	10	6.9960086E-003	1.9372749E+001
2	0	0	1	1.187673969996831E+002	-3.6875555E-001	-3.6919609E-001	-1.932355873911825E+001	-2.2766764E-001	10	7.1341824E-003	1.9106009E+001
2	0	0	1	1.189673969946307E+002	-3.6975554E-001	-3.7008655E-001	-1.952747760729997E+001	-2.3155198E-001	10	7.2268569E-003	1.8952091E+001
2	0	0	1	1.191672969895808E+002	-3.7075555E-001	-3.7108043E-001	-2.046262529075699E+001	-2.3554285E-001	10	7.5932797E-003	1.8134546E+001
2	0	0	0	1.193671969845309E+002	-3.7175554E-001	-3.7192371E-001	-2.069193814171149E+001	-2.3965839E-001	10	7.6958225E-003	1.7974329E+001
2	0	0	0	1.195671969794785E+002	-3.7275547E-001	-3.7305272E-001	-2.030159362792418E+001	-2.4375461E-001	10	7.5735645E-003	1.8375538E+001
2	0	0	0	1.197671969744260E+002	-3.7375546E-001	-3.7418380E-001	-1.985712498007456E+001	-2.4776609E-001	10	7.4302144E-003	1.8843805E+001
2	0	0	0	1.199671969693736E+002	-3.7475541E-001	-3.7510714E-001	-1.965716793356029E+001	-2.5171039E-001	10	7.3735439E-003	1.9082460E+001
2	0	0	0	1.201671969643212E+002	-3.7575540E-001	-3.7603581E-001	-2.021990555146382E+001	-2.5569788E-001	10	7.6034088E-003	1.8597307E+001
2	0	0	0	1.203671969592688E+002	-3.7675545E-001	-3.7711602E-001	-2.006594416411286E+001	-2.5972664E-001	10	7.5671892E-003	1.8793835E+001
2	0	0	0	1.205671969542163E+002	-3.7775534E-001	-3.7803718E-001	-1.989858217736764E+001	-2.6371786E-001	10	7.5224042E-003	1.8998198E+001
2	0	0	0	1.207671969491639E+002	-3.7875536E-001	-3.7909624E-001	-1.980985249507991E+001	-2.6768330E-001	10	7.5098407E-003	1.9136753E+001
2	0	0	0	1.209671969441115E+002	-3.7975535E-001	-3.8021040E-001	-1.957002441250548E+001	-2.7161711E-001	10	7.4407267E-003	1.9428202E+001
2	0	0	0	1.211671969390591E+002	-3.8075528E-001	-3.8109455E-001	-1.960147070262968E+001	-2.7552933E-001	10	7.4700136E-003	1.9442141E+001
2	0	0	0	1.213671969340066E+002	-3.8175529E-001	-3.8224790E-001	-1.967077818127709E+001	-2.7945605E-001	10	7.5191134E-003	1.9432272E+001
2	0	0	0	1.215671969289542E+002	-3.8275522E-001	-3.8305143E-001	-1.978308487708875E+001	-2.8339526E-001	10	7.5779390E-003	1.9362574E+001
2	0	0	0	1.217671969239018E+002	-3.8375527E-001	-3.8407439E-001	-2.030495708329346E+001	-2.8740510E-001	10	7.7986140E-003	1.8915302E+001
2	0	0	0	1.219671969188494E+002	-3.8475522E-001	-3.8517693E-001	-2.065427942435483E+001	-2.9150620E-001	10	7.9555521E-003	1.8648771E+001
2	0	0	0	1.221671969137969E+002	-3.8575521E-001	-3.8609180E-001	-2.056315668640229E+001	-2.9562387E-001	10	7.9392660E-003	1.8775902E+001
2	0	0	0	1.223671969087445E+002	-3.8675517E-001	-3.8709354E-001	-2.068331280289863E+001	-2.9974371E-001	10	8.0063771E-003	1.8715258E+001
2	0	0	0	1.225671969036921E+002	-3.8775513E-001	-3.8811547E-001	-2.095302230930656E+001	-3.0390325E-001	10	8.1321923E-003	1.8523127E+001
2	0	0	0	1.227671968986397E+002	-3.8875514E-001	-3.8911620E-001	-2.120066669387339E+001	-3.0811808E-001	10	8.2495231E-003	1.8353960E+001
2	0	0	0	1.229671968935872E+002	-3.8975504E-001	-3.9023674E-001	-2.146199189467765E+001	-3.1238043E-001	10	8.3752573E-003	1.8182690E+001
2	0	0	0	1.231671968885348E+002	-3.9075509E-001	-3.9098307E-001	-2.149338322256152E+001	-3.1667551E-001	10	8.4035490E-003	1.8190857E+001
2	0	0	0	1.233671968834824E+002	-3.9175507E-001	-3.9210248E-001	-2.185453420107055E+001	-3.2100752E-001	10	8.5692173E-003	1.7941471E+001
2	0	0	0	1.235671968784300E+002	-3.9275503E-001	-3.9334172E-001	-2.229090655525789E+001	-3.2542989E-001	10	8.7679438E-003	1.7645838E+001
2	0	0	0	1.237671968733775E+002	-3.9375508E-001	-3.9412934E-001	-2.211832766292315E+001	-3.2986638E-001	10	8.7174820E-003	1.7819130E+001
2	0	0	0	1.239671968683251E+002	-3.9475501E-001	-3.9519903E-001	-2.201157179860033E+001	-3.3427751E-001	10	8.6989515E-003	1.7954149E+001
2	0	0	0	1.241671968632727E+002	-3.9575499E-001	-3.9616683E-001	-2.198852521329776E+001	-3.3867648E-001	10	8.7111248E-003	1.8016981E+001
2	0	0	0	1.243671968582203E+002	-3.9675495E-001	-3.9705202E-001	-2.205962214664538E+001	-3.4307742E-001	10	8.7588178E-003	1.7999041E+001
2	0	0	0	1.245671968531678E+002	-3.9775491E-001	-3.9822873E-001	-2.202099818396728E+001	-3.4748164E-001	10	8.7693939E-003	1.8084045E+001
2	0	0	0	1.247671968481154E+002	-3.9875489E-001	-3.9903650E-001	-2.195614228902757E+001	-3.5187843E-001	10	8.7613026E-003	1.8174253E+001
2	0	0	0	1.249671968430630E+002	-3.9975488E-001	-4.0023127E-001	-2.236655310911385E+001	-3.5630503E-001	10	8.9517944E-003	1.7894186E+001
2	0	0	0	1.251671968380106E+002	-4.0075490E-001	-4.0106127E-001	-2.246965165635623E+001	-3.6079058E-001	10	9.0117073E-003	1.7849020E+001
2	0	0	0	1.253671968329581E+002	-4.0175483E-001	-4.0224218E-001	-2.327360792278972E+001	-3.6535853E-001	10	9.3616266E-003	1.7283190E+001
2	0	0	0	1.255671968279057E+002	-4.0275481E-001	-4.0306064E-001	-2.339229276526282E+001	-3.7002808E-001	10	9.4285123E-003	1.7230490E+001
2	0	0	0	1.257671968228533E+002	-4.0375483E-001	-4.0420443E-001	-2.338873551870427E+001	-3.7470281E-001	10	9.4538303E-003	1.7282013E+001
2	0	0	0	1.259671968178009E+002	-4.0475473E-001	-4.0511292E-001	-2.395875241426654E+001	-3.7943161E-001	10	9.7059999E-003	1.6908766E+001
2	0	0	0	1.261671968127484E+002	-4.0575477E-001	-4.0618467E-001	-2.441819171948767E+001	-3.8427341E-001	10	9.9182948E-003	1.6634510E+001
2	0	0	0	1.263671968076960E+002	-4.0675476E-001	-4.0719917E-001	-2.497645987134410E+001	-3.8920707E-001	10	1.0170394E-002	1.6303318E+001
2	0	0	0	1.265671968026436E+002	-4.0775472E-001	-4.0797409E-001	-2.482732928596644E+001	-3.9418682E-001	10	1.0128907E-002	1.6432461E+001
2	0	0	0	1.267671967975912E+002	-4.0875465E-001	-4.0916461E-001	-2.488544346888841E+001	-3.9915383E-001	10	1.0182243E-002	1.6441925E+001
2	0	0	0	1.269671967925387E+002	-4.0975469E-001	-4.1021937E-001	-2.477526297347620E+001	-4.0411589E-001	10	1.0163293E-002	1.6557619E+001
2	0	0	0	1.271671967874863E+002	-4.1075468E-001	-4.1110665E-001	-2.481195108947296E+001	-4.0907341E-001	10	1.0200358E-002	1.6568897E+001
2	0	0	0	1.273671967824339E+002	-4.1175458E-001	-4.1211262E-001	-2.461264120680949E+001	-4.1401029E-001	10	1.0143180E-002	1.6743942E+001
2	0	0	0	1.275671967773815E+002	-4.1275463E-001	-4.1319719E-001	-2.466207912341267E+001	-4.1893327E-001	10	1.0190302E-002	1.6754353E+001
2	0	0	0	1.277671967723290E+002	-4.1375461E-001	-4.1421482E-001	-2.536244044998614E+001	-4.2392623E-001	10	1.0505498E-002	1.6331820E+001
2	0	0	1	1.279670967672791E+002	-4.1475421E-001	-4.1497985E-001	-2.652625433346205E+001	-4.2911077E-001	10	1.1007861E-002	1.5644117E+001
2	0	0	1	1.281669967622292E+002	-4.1575441E-001	-4.1611877E-001	-2.644834736933149E+001	-4.3440473E-001	10	1.1005654E-002	1.5733262E+001
2	0	0	1	1.283669967571768E+002	-4.1675451E-001	-4.1708454E-001	-2.657292231140235E+001	-4.3970546E-001	10	1.1083155E-002	1.5695848E+001
2	0	0	1	1.285669967521244E+002	-4.1775450E-001	-4.1824847E-001	-2.630787838397383E+001	-4.4499069E-001	10	1.1003230E-002	1.5898221E+001
2	0	0	1	1.287669967470720E+002	-4.1875446E-001	-4.1901597E-001	-2.603265953307247E+001	-4.5022133E-001	10	1.0908100E-002	1.6095781E+001
2	0	0	1	1.289669967420195E+002	-4.1975445E-001	-4.2024672E-001	-2.582374615842255E+001	-4.5540193E-001	10	1.0852344E-002	1.6273655E+001
2	0	0	1	1.291669967369671E+002	-4.2075443E-001	-4.2101207E-001	-2.585136201430339E+001	-4.6056852E-001	10	1.0883735E-002	1.6285875E+001
2	0	0	1	1.293669967319147E+002	-4.2175439E-001	-4.2209446E-001	-2.702995002161629E+001	-4.6584541E-001	10	1.1409192E-002	1.5615807E+001
2	0	0	1	1.295669967268623E+002	-4.2275444E-001	-4.2330617E-001	-2.710741508385490E+001	-4.7126290E-001	10	1.1474736E-002	1.5615881E+001
2	0	0	1	1.297669967218098E+002	-4.2375433E-001	-4.2397827E-001	-2.691572174842125E+001	-4.7666264E-001	10	1.1411681E-002	1.5752068E+001
2	0	0	1	1.299669967167574E+002	-4.2475432E-001	-4.2510298E-001	-2.679353362821948E+001	-4.8202807E-001	10	1.1390011E-002	1.5865880E+001
2	0	0	1	1.301669967117050E+002	-4.2575431E-001	-4.2626485E-001	-2.706666055585242E+001	-4.8740944E-001	10	1.1537566E-002	1.5748705E+001
2	0	0	1	1.303669967066526E+002	-4.2675427E-001	-4.2703235E-001	-2.700645022030037E+001	-4.9281475E-001	10	1.1532628E-002	1.5812236E+001
2	0	0	1	1.305669967016001E+002	-4.2775431E-001	-4.2835537E-001	-2.685365246266724E+001	-4.9819568E-001	10	1.1502906E-002	1.5951475E+001
2	0	0	1	1.307669966965477E+002	-4.2875424E-001	-4.2894477E-001	-2.695199997138556E+001	-5.0357527E-001	10	1.1560920E-002	1.5915136E+001
2	0	0	1	1.309669966914953E+002	-4.2975426E-001	-4.3009385E-001	-2.733555734238655E+001	-5.0900358E-001	10	1.1756855E-002	1.5733861E+001
2	0	0	1	1.311669966864429E+002	-4.3075418E-001	-4.3094721E-001	-2.942253970369995E+001	-5.1470047E-001	10	1.2679562E-002	1.4646839E+001
2	0	0	1	1.313669966813904E+002	-4.3175414E-001	-4.3206879E-001	-2.925183367026352E+001	-5.2056623E-001	10	1.2638805E-002	1.4770657E+001
2	0	0	1	1.315669966763380E+002	-4.3275413E-001	-4.3324339E-001	-2.930142503314522E+001	-5.2641678E-001	10	1.2694648E-002	1.4785745E+001
2	0	0	1	1.317669966712856E+002	-4.3375412E-001	-4.3389753E-001	-2.924310695665499E+001	-5.3226900E-001	10	1.2688512E-002	1.4837600E+001
2	0	0	1	1.319669966662332E+002	-4.3475413E-001	-4.3523210E-001	-2.908255924362160E+001	-5.3809690E-001	10	1.2657664E-002	1.4965399E+001
2	0	0	1	1.321669966611807E+002	-4.3575406E-001	-4.3609080E-001	-2.906182047515222E+001	-5.4390836E-001	10	1.2673592E-002	1.5005626E+001
2	0	0	1	1.323669966561283E+002	-4.3675408E-001	-4.3709257E-001	-2.976068840302582E+001	-5.4979938E-001	10	1.3008175E-002	1.4686911E+001
2	0	0	1	1.325669966510759E+002	-4.3775406E-001	-4.3825126E-001	-2.970817408513045E+001	-5.5574429E-001	10	1.3019645E-002	1.4751875E+001
2	0	0	1	1.327669966460235E+002	-4.3875396E-001	-4.3901452E-001	-2.947108397083753E+001	-5.6166053E-001	10	1.2938234E-002	1.4896450E+001
2	0	0	1	1.329669966409710E+002	-4.3975401E-001	-4.4016257E-001	-3.002028014708549E+001	-5.6761426E-001	10	1.3213804E-002	1.4662174E+001
2	0	0	1	1.331669966359186E+002	-4.4075400E-001	-4.4088346E-001	-2.990674436687070E+001	-5.7360524E-001	10	1.3185388E-002	1.4741940E+001
2	0	0	1	1.333669966308662E+002	-4.4175395E-001	-4.4227636E-001	-3.003624850200686E+001	-5.7959533E-001	10	1.3284323E-002	1.4724753E+001
2	0	0	1	1.335669966258138E+002	-4.4275388E-001	-4.4314885E-001	-3.131834042694015E+001	-5.8574963E-001	10	1.3878686E-002	1.4149819E+001
2	0	0	1	1.337669966207613E+002	-4.4375390E-001	-4.4416124E-001	-3.080363963574791E+001	-5.9195727E-001	10	1.3681782E-002	1.4419115E+001
2	0	0	1	1.339669966157089E+002	-4.4475389E-001	-4.4515985E-001	-3.090084938397479E+001	-5.9812367E-001	10	1.3755818E-002	1.4406072E+001
2	0	0	1	1.341669966106565E+002	-4.4575381E-001	-4.4604391E-001	-3.150437325604105E+001	-6.0436285E-001	10	1.4052334E-002	1.4158158E+001
2	0	0	1	1.343669966056041E+002	-4.4675386E-001	-4.4723019E-001	-3.144739727963120E+001	-6.1065853E-001	10	1.4064225E-002	1.4221533E+001
2	0	0	1	1.345669966005516E+002	-4.4775382E-001	-4.4812277E-001	-3.151769025606893E+001	-6.1695492E-001	10	1.4123795E-002	1.4218135E+001
2	0	0	1	1.347669965954992E+002	-4.4875380E-001	-4.4919133E-001	-3.169668272509324E+001	-6.2327534E-001	10	1.4237875E-002	1.4171556E+001
2	0	0	1	1.349669965904468E+002	-4.4975379E-001	-4.5001718E-001	-3.152385524395094E+001	-6.2959462E-001	10	1.4186276E-002	1.4275449E+001
2	0	0	1	1.351669965853944E+002	-4.5075375E-001	-4.5110160E-001	-3.202646741899503E+001	-6.3594133E-001	10	1.4447191E-002	1.4085275E+001
2	0	0	1	1.353669965803419E+002	-4.5175374E-001	-4.5214796E-001	-3.215671123479768E+001	-6.4235926E-001	10	1.4539591E-002	1.4060765E+001
2	0	0	1	1.355669965752895E+002	-4.5275372E-001	-4.5311055E-001	-3.199096952733555E+001	-6.4877290E-001	10	1.4495445E-002	1.4163702E+001
2	0	0	1	1.357669965702371E+002	-4.5375368E-001	-4.5413351E-001	-3.188589704631406E+001	-6.5515715E-001	10	1.4480454E-002	1.4242456E+001
2	0	0	1	1.359669965651847E+002	-4.5475364E-001	-4.5508122E-001	-3.258122693357029E+001	-6.6160202E-001	10	1.4827104E-002	1.3967590E+001
2	0	0	1	1.361669965601322E+002	-4.5575362E-001	-4.5620489E-001	-3.361608184573328E+001	-6.6823834E-001	10	1.5335821E-002	1.3571031E+001
2	0	0	1	1.363669965550798E+002	-4.5675361E-001	-4.5702749E-001	-3.329369687033892E+001	-6.7492491E-001	10	1.5216134E-002	1.3727148E+001
2	0	0	1	1.365669965500274E+002	-4.5775357E-001	-4.5796993E-001	-3.293426490749096E+001	-6.8154138E-001	10	1.5082903E-002	1.3905577E+001
2	0	0	1	1.367669965449750E+002	-4.5875368E-001	-4.5917344E-001	-3.246270825391582E+001	-6.8807572E-001	10	1.4906013E-002	1.4144644E+001
2	0	0	1	1.369667965399276E+002	-4.5975322E-001	-4.6005860E-001	-3.250816799997619E+001	-6.9456160E-001	10	1.4955662E-002	1.4152093E+001
2	0	0	0	1.371667965348752E+002	-4.6075350E-001	-4.6117464E-001	-3.298995634379571E+001	-7.0110822E-001	10	1.5214131E-002	1.3979243E+001
2	0	0	0	1.373667965298228E+002	-4.6175349E-001	-4.6203539E-001	-3.367860160365944E+001	-7.0777279E-001	10	1.5560706E-002	1.3718960E+001
2	0	0	0	1.375667965247703E+002	-4.6275347E-001	-4.6311668E-001	-3.393346469959170E+001	-7.1453846E-001	10	1.5715154E-002	1.3647786E+001
2	0	0	0	1.377667965197179E+002	-4.6375349E-001	-4.6412480E-001	-3.447359402109447E+001	-7.2137481E-001	10	1.6000049E-002	1.3463198E+001
2	0	0	0	1.379667965146655E+002	-4.6475342E-001	-4.6502164E-001	-3.488805740544561E+001	-7.2832042E-001	10	1.6223703E-002	1.3328963E+001
2	0	0	0	1.381667965096131E+002	-4.6575344E-001	-4.6609023E-001	-3.519979496580666E+001	-7.3532754E-001	10	1.6406281E-002	1.3241277E+001
2	0	0	0	1.383667965045606E+002	-4.6675336E-001	-4.6697858E-001	-3.534180063103872E+001	-7.4238724E-001	10	1.6503863E-002	1.3213208E+001
2	0	0	0	1.385667964995082E+002	-4.6775335E-001	-4.6816686E-001	-3.509965154238027E+001	-7.4943024E-001	10	1.6432494E-002	1.3338220E+001
2	0	0	0	1.387667964944558E+002	-4.6875337E-001	-4.6894392E-001	-3.516604540677827E+001	-7.5645477E-001	10	1.6490903E-002	1.3335134E+001
2	0	0	0	1.389667964894034E+002	-4.6975330E-001	-4.7014189E-001	-3.521647538646823E+001	-7.6349229E-001	10	1.6556740E-002	1.3350055E+001
2	0	0	0	1.391667964843509E+002	-4.7075331E-001	-4.7117859E-001	-3.523524895979455E+001	-7.7053714E-001	10	1.6602095E-002	1.3372364E+001
2	0	0	0	1.393667964792985E+002	-4.7175330E-001	-4.7206381E-001	-3.550288457529888E+001	-7.7761257E-001	10	1.6759627E-002	1.3296492E+001
2	0	0	0	1.395667964742461E+002	-4.7275326E-001	-4.7301257E-001	-3.571418365167119E+001	-7.8473276E-001	10	1.6893258E-002	1.3244390E+001
2	0	0	0	1.397667964691937E+002	-4.7375324E-001	-4.7414795E-001	-3.553320341045364E+001	-7.9185647E-001	10	1.6847996E-002	1.3343800E+001
2	0	0	0	1.399667964641412E+002	-4.7475323E-001	-4.7506598E-001	-3.649820627376863E+001	-7.9906523E-001	10	1.7339056E-002	1.3016146E+001
2	0	0	0	1.401667964590888E+002	-4.7575319E-001	-4.7594905E-001	-3.741609290370604E+001	-8.0645645E-001	10	1.7808154E-002	1.2720437E+001
2	0	0	0	1.403667964540364E+002	-4.7675318E-001	-4.7717029E-001	-3.735865833672813E+001	-8.1393749E-001	10	1.7826442E-002	1.2772683E+001
2	0	0	0	1.405667964489840E+002	-4.7775313E-001	-4.7810102E-001	-3.715912295144705E+001	-8.2139152E-001	10	1.7765814E-002	1.2866316E+001
2	0	0	0	1.407667964439315E+002	-4.7875315E-001	-4.7911340E-001	-3.708934735008376E+001	-8.2882005E-001	10	1.7770004E-002	1.2917817E+001
2	0	0	0	1.409667964388791E+002	-4.7975311E-001	-4.7997633E-001	-3.713998893464236E+001	-8.3623999E-001	10	1.7826315E-002	1.2923437E+001
2	0	0	0	1.411667964338267E+002	-4.8075309E-001	-4.8127168E-001	-3.702831325887831E+001	-8.4365761E-001	10	1.7820679E-002	1.2997396E+001
2	0	0	0	1.413667964287743E+002	-4.8175305E-001	-4.8204663E-001	-3.728789150039086E+001	-8.5109282E-001	10	1.7974503E-002	1.2927699E+001
2	0	0	0	1.415667964237218E+002	-4.8275304E-001	-4.8318622E-001	-3.702799876909398E+001	-8.5852563E-001	10	1.7891418E-002	1.3049212E+001
2	0	0	0	1.417667964186694E+002	-4.8375300E-001	-4.8404175E-001	-3.745118754710202E+001	-8.6597043E-001	10	1.8127939E-002	1.2924603E+001
2	0	0	0	1.419667964136170E+002	-4.8475295E-001	-4.8517287E-001	-3.898624149525813E+001	-8.7363237E-001	10	1.8915066E-002	1.2444720E+001
2	0	0	0	1.421667964085646E+002	-4.8575297E-001	-4.8594356E-001	-3.872335357974174E+001	-8.8140243E-001	10	1.8817363E-002	1.2549109E+001
2	0	0	0	1.423667964035121E+002	-4.8675293E-001	-4.8708630E-001	-3.835061667808861E+001	-8.8910770E-001	10	1.8680060E-002	1.2700872E+001
2	0	0	0	1.425667963984597E+002	-4.8775291E-001	-4.8807114E-001	-3.866329949702254E+001	-8.9680654E-001	10	1.8870441E-002	1.2623629E+001
2	0	0	0	1.427667963934073E+002	-4.8875287E-001	-4.8890859E-001	-3.890508752993719E+001	-9.0456241E-001	10	1.9021031E-002	1.2566701E+001
2	0	0	0	1.429667963883549E+002	-4.8975286E-001	-4.8998776E-001	-3.892711966324293E+001	-9.1234630E-001	10	1.9073812E-002	1.2587311E+001
2	0	0	0	1.431667963833024E+002	-4.9075282E-001	-4.9125457E-001	-3.959607321361837E+001	-9.2019433E-001	10	1.9451752E-002	1.2406649E+001
2	0	0	0	1.433667963782500E+002	-4.9175280E-001	-4.9204537E-001	-3.973599344667662E+001	-9.2813385E-001	10	1.9551912E-002	1.2382863E+001
2	0	0	0	1.435667963731976E+002	-4.9275285E-001	-4.9318075E-001	-3.957282325226691E+001	-9.3606508E-001	10	1.9516556E-002	1.2462612E+001
2	0	0	0	1.437667963681452E+002	-4.9375278E-001	-4.9400759E-001	-3.953215863618186E+001	-9.4397378E-001	10	1.9529186E-002	1.2496347E+001
2	0	0	0	1.439667963630927E+002	-4.9475273E-001	-4.9525213E-001	-3.956349066974360E+001	-9.5188147E-001	10	1.9593904E-002	1.2517908E+001
2	0	0	0	1.441667963580403E+002	-4.9575272E-001	-4.9607053E-001	-4.036172369142776E+001	-9.5988983E-001	10	2.0022262E-002	1.2290618E+001
2	0	0	0	1.443667963529879E+002	-4.9675271E-001	-4.9711052E-001	-4.019128525770725E+001	-9.6794397E-001	10	1.9979510E-002	1.2368614E+001
2	0	0	0	1.445667963479355E+002	-4.9775273E-001	-4.9814191E-001	-4.037873922805403E+001	-9.7600335E-001	10	2.0114342E-002	1.2336738E+001
2	0	0	0	1.447667963428830E+002	-4.9875265E-001	-4.9908009E-001	-4.157116724547342E+001	-9.8419654E-001	10	2.0747341E-002	1.2005439E+001
2	0	0	0	1.449367963385885E+002	-4.9960262E-001	-4.9984708E-001	-4.160515016925592E+001	-9.9127239E-001	10	2.0796213E-002	1.2014068E+001
2	0	0	1	1.450061963368353E+002	-5.0000250E-001	-5.0046235E-001	-4.152183240525267E+001	-9.9415851E-001	10	2.0780114E-002	1.2052993E+001