EC-Lab ASCII FILE
Nb header lines : 61                          

Linear Sweep Voltammetry

Run on channel : 2 (SN 77481)
User : 
CE vs. WE compliance from -10 V to 10 V
Electrode connection : standard
Potential control : Ewe
Ewe ctrl range : min = -2.50 V, max = 2.50 V
Safety Limits :
	Do not start on E overload
Acquisition started on : 03/02/2026 15:27:08.205
Technique started on : 03/02/2026 15:27:08.205
Loaded Setting File :  NONE
Saved on :
	File : bare SS_C02.mpr
	Directory : D:\Dr. Kiran V\CE-II 2026\group F\020326\HER with SS\
	Host : 192.109.209.127
Device : SP-150e (SN .003673)
Address : 192.109.209.128
EC-LAB for windows v11.60 (software)
Internet server v11.60 (firmware)
Command interpretor v11.60 (firmware)
Electrode material : Au/Pd
Initial state : 
Electrolyte : NaCl (0.2M)
Comments : Fe(CN)63-/Fe(CN)64- 5.10-3 M
Reference electrode : SCE Saturated Calomel Electrode (0.241 V)
Electrode surface area : 0.001 cm²
Characteristic mass : 0.001 g
Equivalent Weight : 0.000 g/eq.
Density : 0.000 g/cm3
Volume (V) : 0.001 cm³
Cycle Definition : Charge/Discharge alternance
tR (h:m:s)          0:00:5.0000         
dER/dt (mV/h)       0.0                 
dER (mV)            0                   
dtR (s)             0.0000              
dE/dt               5.000               
dE/dt unit          mV/s                
Ei (V)              -0.800              
vs.                 Ref                 
EL (V)              -1.500              
vs.                 Ref                 
record              <I>                 
dI                  0.000               
unit dI             µA                  
tI (s)              0.0000              
step percent        50                  
N                   10                  
E range min (V)     -2.500              
E range max (V)     2.500               
I Range             Auto                
I Range min         Unset               
I Range max         Unset               
I Range init        Unset               
Bandwidth           5                   

mode	ox/red	error	control changes	time/s	control/V	Ewe/V	<I>/mA	(Q-Qo)/C	I Range	Pwe/W	Rwe/Ohm	
3	0	0	1	0.000000000000000E+000	0.0000000E+000	-6.1376876E-001	0.000000000000000E+000	0.0000000E+000	14	0.0000000E+000	0.0000000E+000
3	0	0	0	4.999799873694428E+000	-7.9994589E-001	-3.9022815E-001	0.000000000000000E+000	0.0000000E+000	14	0.0000000E+000	0.0000000E+000
2	0	0	1	5.099799871168216E+000	-8.0039573E-001	-8.0063456E-001	-3.540058956146240E+000	-1.1875728E-004	11	2.8342935E-003	2.2616418E+002
2	0	0	1	5.209799868389382E+000	-8.0094582E-001	-8.0126977E-001	-1.888657924091939E+000	-3.4611183E-004	11	1.5133244E-003	4.2425351E+002
2	0	0	1	5.409799863336957E+000	-8.0194587E-001	-8.0226296E-001	-1.095920576479567E+000	-6.3695764E-004	11	8.7921647E-004	7.3204480E+002
2	0	0	1	5.609799858284532E+000	-8.0294591E-001	-8.0328178E-001	-8.549021351279960E-001	-8.3104317E-004	11	6.8672729E-004	9.3961841E+002
2	0	0	1	5.809799853232107E+000	-8.0394578E-001	-8.0426341E-001	-7.451233820580043E-001	-9.9121046E-004	11	5.9927546E-004	1.0793695E+003
2	0	0	1	6.009799848179682E+000	-8.0494583E-001	-8.0534053E-001	-6.826711195666793E-001	-1.1345292E-003	11	5.4978271E-004	1.1796903E+003
2	0	0	1	6.209799843127257E+000	-8.0594575E-001	-8.0624574E-001	-6.423394760146488E-001	-1.2677086E-003	11	5.1788345E-004	1.2551708E+003
2	0	0	1	6.409799838074832E+000	-8.0694574E-001	-8.0724216E-001	-6.147418820432264E-001	-1.3941689E-003	11	4.9624557E-004	1.3131400E+003
2	0	0	1	6.609799833022407E+000	-8.0794573E-001	-8.0828220E-001	-5.943998829070978E-001	-1.5158764E-003	11	4.8044283E-004	1.3598290E+003
2	0	0	1	6.809799827969982E+000	-8.0894578E-001	-8.0928826E-001	-5.791906661938966E-001	-1.6340687E-003	11	4.6873221E-004	1.3972743E+003
2	0	0	1	7.009799822917557E+000	-8.0994564E-001	-8.1025714E-001	-5.675069012229326E-001	-1.7495888E-003	11	4.5982652E-004	1.4277485E+003
2	0	0	1	7.209799817865132E+000	-8.1094569E-001	-8.1123763E-001	-5.582929732248401E-001	-1.8630318E-003	11	4.5290828E-004	1.4530680E+003
2	0	0	1	7.409799812812707E+000	-8.1194562E-001	-8.1224579E-001	-5.509899296457803E-001	-1.9748334E-003	11	4.4753923E-004	1.4741572E+003
2	0	0	1	7.609799807760282E+000	-8.1294560E-001	-8.1325936E-001	-5.452352161740973E-001	-2.0853495E-003	11	4.4341764E-004	1.4915753E+003
2	0	0	1	7.809799802707857E+000	-8.1394559E-001	-8.1428015E-001	-5.407008581125354E-001	-2.1948342E-003	11	4.4028199E-004	1.5059717E+003
2	0	0	1	8.009799797655432E+000	-8.1494558E-001	-8.1528938E-001	-5.373881356431642E-001	-2.3035230E-003	11	4.3812685E-004	1.5171332E+003
2	0	0	1	8.209799792603008E+000	-8.1594551E-001	-8.1625730E-001	-5.346102523036667E-001	-2.4115918E-003	11	4.3637952E-004	1.5268269E+003
2	0	0	1	8.409799787550583E+000	-8.1694555E-001	-8.1727278E-001	-5.320681835949221E-001	-2.5191396E-003	11	4.3484484E-004	1.5360302E+003
2	0	0	1	8.609799782498158E+000	-8.1794548E-001	-8.1822050E-001	-5.300951185984708E-001	-2.6262642E-003	11	4.3373471E-004	1.5435353E+003
2	0	0	1	8.809799777445733E+000	-8.1894547E-001	-8.1925625E-001	-5.289155682738951E-001	-2.7330809E-003	11	4.3331739E-004	1.5489358E+003
2	0	0	1	9.009799772393308E+000	-8.1994551E-001	-8.2026643E-001	-5.277413043601102E-001	-2.8396719E-003	11	4.3288848E-004	1.5542964E+003
2	0	0	1	9.209799767340883E+000	-8.2094544E-001	-8.2130218E-001	-5.270290953907568E-001	-2.9460641E-003	11	4.3285015E-004	1.5583621E+003
2	0	0	1	9.409799762288458E+000	-8.2194537E-001	-8.2228911E-001	-5.264429564328017E-001	-3.0523301E-003	11	4.3288831E-004	1.5619719E+003
2	0	0	1	9.609799757236033E+000	-8.2294542E-001	-8.2326978E-001	-5.263369216999703E-001	-3.1585195E-003	11	4.3331730E-004	1.5641498E+003
2	0	0	1	9.809799752183608E+000	-8.2394534E-001	-8.2425565E-001	-5.261058080519057E-001	-3.2646663E-003	11	4.3364568E-004	1.5667108E+003
2	0	0	1	1.000979974713118E+001	-8.2494533E-001	-8.2533157E-001	-5.259849334435538E-001	-3.3708005E-003	11	4.3411198E-004	1.5691163E+003
2	0	0	1	1.020979974207876E+001	-8.2594538E-001	-8.2631534E-001	-5.264176246910752E-001	-3.4769741E-003	11	4.3498696E-004	1.5696954E+003
2	0	0	1	1.040979973702633E+001	-8.2694530E-001	-8.2723969E-001	-5.268179051991950E-001	-3.5832331E-003	11	4.3580469E-004	1.5702573E+003
2	0	0	1	1.060979973197391E+001	-8.2794523E-001	-8.2825959E-001	-5.275171976536508E-001	-3.6895976E-003	11	4.3692117E-004	1.5701091E+003
2	0	0	1	1.080979972692148E+001	-8.2894528E-001	-8.2932073E-001	-5.281847607927261E-001	-3.7960892E-003	11	4.3803456E-004	1.5701338E+003
2	0	0	1	1.100979972186906E+001	-8.2994527E-001	-8.3032984E-001	-5.288668458567525E-001	-3.9027224E-003	11	4.3913393E-004	1.5700168E+003
2	0	0	1	1.120979971681663E+001	-8.3094519E-001	-8.3131367E-001	-5.296664063833543E-001	-4.0095113E-003	11	4.4031892E-004	1.5695043E+003
2	0	0	1	1.140979971176421E+001	-8.3194524E-001	-8.3227837E-001	-5.305240213060034E-001	-4.1164462E-003	11	4.4154367E-004	1.5687854E+003
2	0	0	1	1.160979970671178E+001	-8.3294517E-001	-8.3325362E-001	-5.311217942315229E-001	-4.2235432E-003	11	4.4255916E-004	1.5688560E+003
2	0	0	1	1.180979970165936E+001	-8.3394516E-001	-8.3428925E-001	-5.319175713076814E-001	-4.3307901E-003	11	4.4377311E-004	1.5684559E+003
2	0	0	1	1.200979969660693E+001	-8.3494508E-001	-8.3527511E-001	-5.329464051593724E-001	-4.4382145E-003	11	4.4515688E-004	1.5672778E+003
2	0	0	1	1.220979969155451E+001	-8.3594513E-001	-8.3625787E-001	-5.338249859735869E-001	-4.5458125E-003	11	4.4641536E-004	1.5665394E+003
2	0	0	1	1.240979968650208E+001	-8.3694506E-001	-8.3723313E-001	-5.348575157863085E-001	-4.6536052E-003	11	4.4780044E-004	1.5653386E+003
2	0	0	1	1.260979968144966E+001	-8.3794510E-001	-8.3824885E-001	-5.359393956895694E-001	-4.7616293E-003	11	4.4925057E-004	1.5640740E+003
2	0	0	1	1.280979967639723E+001	-8.3894503E-001	-8.3924729E-001	-5.372628441118454E-001	-4.8699020E-003	11	4.5089639E-004	1.5620795E+003
2	0	0	1	1.300979967134481E+001	-8.3994514E-001	-8.4028101E-001	-5.382290596682875E-001	-4.9783946E-003	11	4.5226366E-004	1.5611959E+003
2	0	0	1	1.320959966629744E+001	-8.4094453E-001	-8.4125662E-001	-5.395935149964528E-001	-5.0870222E-003	11	4.5393661E-004	1.5590562E+003
2	0	0	0	1.340959966124501E+001	-8.4194487E-001	-8.4226012E-001	-5.410481591554781E-001	-5.1960307E-003	11	4.5570330E-004	1.5567194E+003
2	0	0	0	1.360959965619259E+001	-8.4294492E-001	-8.4324914E-001	-5.422819327064650E-001	-5.3053233E-003	11	4.5727877E-004	1.5550013E+003
2	0	0	0	1.380959965114016E+001	-8.4394497E-001	-8.4428275E-001	-5.436274334197000E-001	-5.4148836E-003	11	4.5897526E-004	1.5530540E+003
2	0	0	0	1.400959964608774E+001	-8.4494489E-001	-8.4527391E-001	-5.454662957454675E-001	-5.5247503E-003	11	4.6106844E-004	1.5496355E+003
2	0	0	0	1.420959964103531E+001	-8.4594488E-001	-8.4626722E-001	-5.467858978815348E-001	-5.6349155E-003	11	4.6272698E-004	1.5477123E+003
2	0	0	0	1.440959963598289E+001	-8.4694481E-001	-8.4730184E-001	-5.478364372258486E-001	-5.7453453E-003	11	4.6418281E-004	1.5466328E+003
2	0	0	0	1.460959963093046E+001	-8.4794480E-001	-8.4829199E-001	-5.494121416955515E-001	-5.8560446E-003	11	4.6606193E-004	1.5439994E+003
2	0	0	0	1.480959962587804E+001	-8.4894478E-001	-8.4929490E-001	-5.506630457954591E-001	-5.9670182E-003	11	4.6767533E-004	1.5423132E+003
2	0	0	0	1.500959962082561E+001	-8.4994483E-001	-8.5029882E-001	-5.522290883277456E-001	-6.0782679E-003	11	4.6955975E-004	1.5397574E+003
2	0	0	0	1.520959961577319E+001	-8.5094482E-001	-8.5129416E-001	-5.534964128061626E-001	-6.1897859E-003	11	4.7118825E-004	1.5380302E+003
2	0	0	0	1.540959961072076E+001	-8.5194474E-001	-8.5229278E-001	-5.548913547486198E-001	-6.3015856E-003	11	4.7292988E-004	1.5359634E+003
2	0	0	0	1.560959960566834E+001	-8.5294467E-001	-8.5328609E-001	-5.563911891282629E-001	-6.4136749E-003	11	4.7476086E-004	1.5336082E+003
2	0	0	0	1.580959960061591E+001	-8.5394466E-001	-8.5426354E-001	-5.577775148543909E-001	-6.5260404E-003	11	4.7648899E-004	1.5315490E+003
2	0	0	0	1.600959959556349E+001	-8.5494459E-001	-8.5526627E-001	-5.592625819721055E-001	-6.6386997E-003	11	4.7831843E-004	1.5292750E+003
2	0	0	0	1.620959959051106E+001	-8.5594463E-001	-8.5627764E-001	-5.605050800093663E-001	-6.7516351E-003	11	4.7994798E-004	1.5276893E+003
2	0	0	0	1.640959958545864E+001	-8.5694468E-001	-8.5721058E-001	-5.621316466531190E-001	-6.8648625E-003	11	4.8186519E-004	1.5249285E+003
2	0	0	0	1.660959958040621E+001	-8.5794461E-001	-8.5826111E-001	-5.637701837358629E-001	-6.9784154E-003	11	4.8386204E-004	1.5223599E+003
2	0	0	0	1.680959957535379E+001	-8.5894465E-001	-8.5924697E-001	-5.651966854042954E-001	-7.0922845E-003	11	4.8564354E-004	1.5202618E+003
2	0	0	0	1.700959957030136E+001	-8.5994452E-001	-8.6027306E-001	-5.668023639736610E-001	-7.2064586E-003	11	4.8760482E-004	1.5177655E+003
2	0	0	0	1.720959956524894E+001	-8.6094457E-001	-8.6129612E-001	-5.683227879229653E-001	-7.3209433E-003	11	4.8949424E-004	1.5155051E+003
2	0	0	0	1.740959956019651E+001	-8.6194450E-001	-8.6227465E-001	-5.698010378903686E-001	-7.4357209E-003	11	4.9132499E-004	1.5132908E+003
2	0	0	0	1.760959955514409E+001	-8.6294442E-001	-8.6330289E-001	-5.715031629626766E-001	-7.5508137E-003	11	4.9338036E-004	1.5105829E+003
2	0	0	0	1.780959955009166E+001	-8.6394447E-001	-8.6423993E-001	-5.728981908317845E-001	-7.6662302E-003	11	4.9512147E-004	1.5085402E+003
2	0	0	0	1.800959954503924E+001	-8.6494452E-001	-8.6527455E-001	-5.744241561968728E-001	-7.7819480E-003	11	4.9703458E-004	1.5063339E+003
2	0	0	0	1.820959953998681E+001	-8.6594439E-001	-8.6626154E-001	-5.760853376467621E-001	-7.8979684E-003	11	4.9904059E-004	1.5037035E+003
2	0	0	0	1.840959953493439E+001	-8.6694443E-001	-8.6729515E-001	-5.775956901934940E-001	-8.0143008E-003	11	5.0094596E-004	1.5015609E+003
2	0	0	0	1.860959952988196E+001	-8.6794436E-001	-8.6827999E-001	-5.792191032354043E-001	-8.1309518E-003	11	5.0292438E-004	1.4990527E+003
2	0	0	0	1.880959952482954E+001	-8.6894429E-001	-8.6924356E-001	-5.808340903422247E-001	-8.2479250E-003	11	5.0488627E-004	1.4965436E+003
2	0	0	0	1.900959951977711E+001	-8.6994433E-001	-8.7026656E-001	-5.824861109400334E-001	-8.3652232E-003	11	5.0691818E-004	1.4940554E+003
2	0	0	0	1.920959951472469E+001	-8.7094432E-001	-8.7122810E-001	-5.840764017627831E-001	-8.4828464E-003	11	5.0886377E-004	1.4916338E+003
2	0	0	0	1.940959950967226E+001	-8.7194425E-001	-8.7228292E-001	-5.857252061426177E-001	-8.6007826E-003	11	5.1091809E-004	1.4892357E+003
2	0	0	0	1.960959950461984E+001	-8.7294430E-001	-8.7324429E-001	-5.874312495107434E-001	-8.7190485E-003	11	5.1297096E-004	1.4865472E+003
2	0	0	0	1.980959949956741E+001	-8.7394422E-001	-8.7428218E-001	-5.890607403173131E-001	-8.8376533E-003	11	5.1500532E-004	1.4841970E+003
2	0	0	0	2.000959949451499E+001	-8.7494421E-001	-8.7526166E-001	-5.907404528352158E-001	-8.9565981E-003	11	5.1705248E-004	1.4816349E+003
2	0	0	0	2.020959948946256E+001	-8.7594420E-001	-8.7625599E-001	-5.923138284198355E-001	-9.0758754E-003	11	5.1901856E-004	1.4793779E+003
2	0	0	0	2.040959948441014E+001	-8.7694424E-001	-8.7724942E-001	-5.939266704563499E-001	-9.1954879E-003	11	5.2102184E-004	1.4770332E+003
2	0	0	0	2.060959947935771E+001	-8.7794411E-001	-8.7826061E-001	-5.955523351236955E-001	-9.3154274E-003	11	5.2305014E-004	1.4746993E+003
2	0	0	0	2.080959947430529E+001	-8.7894416E-001	-8.7930906E-001	-5.974011228730269E-001	-9.4357003E-003	11	5.2530022E-004	1.4718905E+003
2	0	0	0	2.100959946925286E+001	-8.7994409E-001	-8.8027060E-001	-5.992106886627040E-001	-9.5563261E-003	11	5.2746758E-004	1.4690502E+003
2	0	0	0	2.120959946420044E+001	-8.8094407E-001	-8.8127023E-001	-6.008521897967525E-001	-9.6772984E-003	11	5.2951317E-004	1.4667006E+003
2	0	0	0	2.140959945914801E+001	-8.8194400E-001	-8.8225293E-001	-6.026909212347400E-001	-9.7986283E-003	11	5.3172582E-004	1.4638563E+003
2	0	0	0	2.160959945409559E+001	-8.8294405E-001	-8.8322192E-001	-6.044637440089247E-001	-9.9203167E-003	11	5.3387566E-004	1.4611661E+003
2	0	0	1	2.180949944904569E+001	-8.8394368E-001	-8.8426042E-001	-6.061479925340389E-001	-1.0042295E-002	11	5.3599267E-004	1.4588193E+003
2	0	0	1	2.200949944399326E+001	-8.8494384E-001	-8.8524550E-001	-6.078837925353255E-001	-1.0164675E-002	11	5.3812639E-004	1.4562742E+003
2	0	0	1	2.220939943894336E+001	-8.8594389E-001	-8.8626313E-001	-6.095628723287584E-001	-1.0287342E-002	11	5.4023310E-004	1.4539323E+003
2	0	0	1	2.240939943389094E+001	-8.8694394E-001	-8.8722795E-001	-6.115905159404358E-001	-1.0410436E-002	11	5.4262020E-004	1.4506896E+003
2	0	0	1	2.260939942883851E+001	-8.8794386E-001	-8.8824034E-001	-6.134350217684537E-001	-1.0533896E-002	11	5.4487772E-004	1.4479779E+003
2	0	0	1	2.280939942378609E+001	-8.8894391E-001	-8.8925278E-001	-6.150783924829391E-001	-1.0657731E-002	11	5.4696016E-004	1.4457552E+003
2	0	0	1	2.300939941873366E+001	-8.8994384E-001	-8.9026719E-001	-6.172368443927923E-001	-1.0781961E-002	11	5.4950570E-004	1.4423429E+003
2	0	0	1	2.320939941368124E+001	-8.9094388E-001	-8.9123511E-001	-6.191977772169022E-001	-1.0906589E-002	11	5.5185083E-004	1.4393384E+003
2	0	0	1	2.340939940862881E+001	-8.9194387E-001	-8.9224321E-001	-6.209297912520571E-001	-1.1031586E-002	11	5.5402040E-004	1.4369470E+003
2	0	0	1	2.360939940357639E+001	-8.9294380E-001	-8.9328212E-001	-6.228086304282776E-001	-1.1156952E-002	11	5.5634382E-004	1.4342803E+003
2	0	0	1	2.380939939852396E+001	-8.9394385E-001	-8.9427215E-001	-6.247228867503187E-001	-1.1282686E-002	11	5.5867230E-004	1.4314701E+003
2	0	0	1	2.400939939347154E+001	-8.9494377E-001	-8.9523065E-001	-6.265946692890569E-001	-1.1408804E-002	11	5.6094676E-004	1.4287238E+003
2	0	0	1	2.420939938841912E+001	-8.9594364E-001	-8.9627361E-001	-6.287725540110318E-001	-1.1535333E-002	11	5.6355225E-004	1.4254337E+003
2	0	0	1	2.440939938336669E+001	-8.9694375E-001	-8.9727962E-001	-6.307585737974168E-001	-1.1662278E-002	11	5.6596682E-004	1.4225405E+003
2	0	0	1	2.460939937831427E+001	-8.9794374E-001	-8.9824861E-001	-6.329417304767286E-001	-1.1789633E-002	11	5.6853902E-004	1.4191648E+003
2	0	0	1	2.480939937326184E+001	-8.9894372E-001	-8.9922917E-001	-6.350641657266749E-001	-1.1917426E-002	11	5.7106820E-004	1.4159658E+003
2	0	0	1	2.500939936820942E+001	-8.9994371E-001	-9.0030313E-001	-6.372311140649249E-001	-1.2045646E-002	11	5.7370117E-004	1.4128361E+003
2	0	0	1	2.520939936315699E+001	-9.0094364E-001	-9.0124232E-001	-6.394357721906254E-001	-1.2174281E-002	11	5.7628658E-004	1.4094337E+003
2	0	0	1	2.540939935810457E+001	-9.0194362E-001	-9.0226215E-001	-6.412900796502212E-001	-1.2303335E-002	11	5.7861174E-004	1.4069486E+003
2	0	0	1	2.560939935305214E+001	-9.0294355E-001	-9.0326387E-001	-6.436545797782061E-001	-1.2432818E-002	11	5.8138993E-004	1.4033363E+003
2	0	0	1	2.580939934799972E+001	-9.0394360E-001	-9.0429854E-001	-6.456380511196906E-001	-1.2562710E-002	11	5.8384956E-004	1.4006277E+003
2	0	0	1	2.600939934294729E+001	-9.0494353E-001	-9.0525371E-001	-6.477178783069366E-001	-1.2693015E-002	11	5.8634899E-004	1.3976050E+003
2	0	0	1	2.620939933789487E+001	-9.0594357E-001	-9.0625870E-001	-6.499136213441288E-001	-1.2823762E-002	11	5.8898987E-004	1.3944294E+003
2	0	0	1	2.640939933284244E+001	-9.0694362E-001	-9.0725088E-001	-6.519287702819634E-001	-1.2954945E-002	11	5.9146294E-004	1.3916411E+003
2	0	0	1	2.660939932779002E+001	-9.0794349E-001	-9.0823787E-001	-6.540858084652692E-001	-1.3086556E-002	11	5.9406552E-004	1.3885608E+003
2	0	0	1	2.680939932273759E+001	-9.0894341E-001	-9.0927881E-001	-6.562754107795481E-001	-1.3218582E-002	11	5.9673731E-004	1.3855140E+003
2	0	0	1	2.700939931768517E+001	-9.0994340E-001	-9.1023082E-001	-6.580847540950558E-001	-1.3351022E-002	11	5.9900904E-004	1.3831514E+003
2	0	0	1	2.720939931263274E+001	-9.1094339E-001	-9.1125906E-001	-6.604146154770554E-001	-1.3483874E-002	11	6.0180877E-004	1.3798287E+003
2	0	0	1	2.740939930758032E+001	-9.1194344E-001	-9.1226405E-001	-6.626684482752143E-001	-1.3617168E-002	11	6.0452858E-004	1.3766523E+003
2	0	0	1	2.760939930252789E+001	-9.1294336E-001	-9.1323513E-001	-6.651002196658418E-001	-1.3750928E-002	11	6.0739287E-004	1.3730790E+003
2	0	0	1	2.780939929747547E+001	-9.1394335E-001	-9.1425914E-001	-6.672449815224271E-001	-1.3885126E-002	11	6.1003480E-004	1.3702001E+003
2	0	0	1	2.800939929242304E+001	-9.1494340E-001	-9.1527253E-001	-6.691833569830852E-001	-1.4019746E-002	11	6.1248516E-004	1.3677455E+003
2	0	0	1	2.820939928737062E+001	-9.1594326E-001	-9.1623408E-001	-6.714164151846012E-001	-1.4154794E-002	11	6.1517459E-004	1.3646287E+003
2	0	0	1	2.840939928231819E+001	-9.1694319E-001	-9.1728884E-001	-6.736261936542371E-001	-1.4290283E-002	11	6.1790977E-004	1.3617179E+003
2	0	0	1	2.860939927726577E+001	-9.1794330E-001	-9.1826409E-001	-6.757205039381029E-001	-1.4426197E-002	11	6.2048988E-004	1.3589407E+003
2	0	0	1	2.880939927221334E+001	-9.1894329E-001	-9.1922140E-001	-6.780608179693948E-001	-1.4562549E-002	11	6.2328804E-004	1.3556622E+003
2	0	0	1	2.900939926716092E+001	-9.1994321E-001	-9.2025489E-001	-6.801572442730529E-001	-1.4699336E-002	11	6.2591804E-004	1.3530032E+003
2	0	0	1	2.920939926210849E+001	-9.2094326E-001	-9.2127693E-001	-6.821485354845986E-001	-1.4836543E-002	11	6.2844768E-004	1.3505518E+003
2	0	0	1	2.940939925705607E+001	-9.2194319E-001	-9.2229992E-001	-6.849306667954274E-001	-1.4974234E-002	11	6.3171150E-004	1.3465596E+003
2	0	0	1	2.960939925200364E+001	-9.2294306E-001	-9.2332178E-001	-6.865573520993893E-001	-1.5112375E-002	11	6.3391338E-004	1.3448574E+003
2	0	0	1	2.980939924695122E+001	-9.2394310E-001	-9.2429280E-001	-6.888887757718427E-001	-1.5250900E-002	11	6.3673494E-004	1.3417156E+003
2	0	0	1	3.000939924189879E+001	-9.2494315E-001	-9.2529035E-001	-6.910356710117966E-001	-1.5389858E-002	11	6.3940865E-004	1.3389907E+003
2	0	0	1	3.020939923684637E+001	-9.2594314E-001	-9.2626774E-001	-6.930619990769902E-001	-1.5529255E-002	11	6.4196100E-004	1.3364861E+003
2	0	0	1	3.040939923179394E+001	-9.2694312E-001	-9.2730135E-001	-6.952792553488747E-001	-1.5669079E-002	11	6.4473337E-004	1.3337107E+003
2	0	0	1	3.060939922674152E+001	-9.2794305E-001	-9.2830849E-001	-6.977567311139836E-001	-1.5809350E-002	11	6.4773351E-004	1.3304186E+003
2	0	0	1	3.080929922169162E+001	-9.2894298E-001	-9.2926776E-001	-6.999028822781259E-001	-1.5950007E-002	11	6.5039721E-004	1.3277096E+003
2	0	0	1	3.100929921663919E+001	-9.2994320E-001	-9.3027294E-001	-7.023647687872163E-001	-1.6091194E-002	11	6.5339095E-004	1.3244869E+003
2	0	0	0	3.120919921158929E+001	-9.3094289E-001	-9.3127251E-001	-7.044934962713558E-001	-1.6232766E-002	11	6.5607543E-004	1.3219036E+003
2	0	0	0	3.140919920653687E+001	-9.3194294E-001	-9.3228376E-001	-7.067242000176002E-001	-1.6374854E-002	11	6.5886747E-004	1.3191621E+003
2	0	0	0	3.160919920148444E+001	-9.3294299E-001	-9.3326229E-001	-7.090229052002819E-001	-1.6517399E-002	11	6.6170434E-004	1.3162654E+003
2	0	0	0	3.180919919643202E+001	-9.3394291E-001	-9.3427467E-001	-7.111645535884819E-001	-1.6660398E-002	11	6.6442305E-004	1.3137250E+003
2	0	0	0	3.200919919137959E+001	-9.3494290E-001	-9.3526995E-001	-7.137653782389308E-001	-1.6803879E-002	11	6.6756329E-004	1.3103325E+003
2	0	0	0	3.220919918632717E+001	-9.3594283E-001	-9.3625063E-001	-7.160402476162466E-001	-1.6947821E-002	11	6.7039311E-004	1.3075391E+003
2	0	0	0	3.240919918127474E+001	-9.3694282E-001	-9.3730015E-001	-7.184775886453174E-001	-1.7092234E-002	11	6.7342917E-004	1.3045642E+003
2	0	0	0	3.260919917622232E+001	-9.3794280E-001	-9.3829024E-001	-7.212604662179576E-001	-1.7237157E-002	11	6.7675166E-004	1.3009034E+003
2	0	0	0	3.280919917116989E+001	-9.3894279E-001	-9.3929625E-001	-7.236721368164423E-001	-1.7382590E-002	11	6.7974254E-004	1.2979583E+003
2	0	0	0	3.300919916611747E+001	-9.3994278E-001	-9.4024938E-001	-7.264259066770631E-001	-1.7528547E-002	11	6.8302150E-004	1.2943500E+003
2	0	0	0	3.320919916106504E+001	-9.4094276E-001	-9.4128293E-001	-7.286776539081821E-001	-1.7675020E-002	11	6.8589184E-004	1.2917687E+003
2	0	0	0	3.340919915601262E+001	-9.4194269E-001	-9.4228774E-001	-7.309417692762787E-001	-1.7821956E-002	11	6.8875746E-004	1.2891420E+003
2	0	0	0	3.360919915096019E+001	-9.4294268E-001	-9.4326949E-001	-7.332721785969554E-001	-1.7969340E-002	11	6.9167325E-004	1.2863839E+003
2	0	0	0	3.380919914590777E+001	-9.4394261E-001	-9.4429463E-001	-7.356870276536682E-001	-1.8117188E-002	11	6.9470529E-004	1.2835548E+003
2	0	0	0	3.400919914085534E+001	-9.4494265E-001	-9.4526350E-001	-7.375586310194624E-001	-1.8265482E-002	11	6.9718726E-004	1.2816113E+003
2	0	0	0	3.420919913580292E+001	-9.4594258E-001	-9.4629490E-001	-7.400279263807406E-001	-1.8414214E-002	11	7.0028467E-004	1.2787286E+003
2	0	0	0	3.440919913075049E+001	-9.4694263E-001	-9.4731581E-001	-7.428838767601267E-001	-1.8563464E-002	11	7.0374564E-004	1.2751869E+003
2	0	0	0	3.460919912569807E+001	-9.4794267E-001	-9.4830167E-001	-7.450611740857607E-001	-1.8713227E-002	11	7.0654275E-004	1.2727837E+003
2	0	0	0	3.480919912064564E+001	-9.4894254E-001	-9.4926953E-001	-7.473096790387692E-001	-1.8863419E-002	11	7.0939830E-004	1.2702493E+003
2	0	0	0	3.500919911559322E+001	-9.4994247E-001	-9.5031375E-001	-7.494413657303962E-001	-1.9014042E-002	11	7.1220443E-004	1.2680295E+003
2	0	0	0	3.520919911054079E+001	-9.5094252E-001	-9.5127314E-001	-7.533170345351294E-001	-1.9165268E-002	11	7.1661029E-004	1.2627793E+003
2	0	0	0	3.540919910548837E+001	-9.5194244E-001	-9.5230466E-001	-7.552964551049088E-001	-1.9317070E-002	11	7.1927236E-004	1.2608356E+003
2	0	0	0	3.560919910043594E+001	-9.5294249E-001	-9.5322382E-001	-7.572377617354800E-001	-1.9469282E-002	11	7.2181708E-004	1.2588170E+003
2	0	0	0	3.580919909538352E+001	-9.5394254E-001	-9.5427108E-001	-7.593547373950944E-001	-1.9621901E-002	11	7.2463026E-004	1.2566868E+003
2	0	0	0	3.600919909033109E+001	-9.5494246E-001	-9.5526749E-001	-7.610038460492086E-001	-1.9774897E-002	11	7.2696223E-004	1.2552728E+003
2	0	0	0	3.620919908527867E+001	-9.5594245E-001	-9.5622587E-001	-7.628679550432409E-001	-1.9928250E-002	11	7.2947406E-004	1.2534618E+003
2	0	0	0	3.640919908022624E+001	-9.5694238E-001	-9.5730704E-001	-7.648328805760460E-001	-2.0081971E-002	11	7.3217991E-004	1.2516552E+003
2	0	0	0	3.660919907517382E+001	-9.5794225E-001	-9.5828992E-001	-7.666725886483050E-001	-2.0236051E-002	11	7.3469459E-004	1.2499337E+003
2	0	0	0	3.680919907012139E+001	-9.5894235E-001	-9.5928633E-001	-7.684807904157598E-001	-2.0390496E-002	11	7.3719310E-004	1.2482893E+003
2	0	0	0	3.700919906506897E+001	-9.5994240E-001	-9.6026689E-001	-7.703332792790150E-001	-2.0545309E-002	11	7.3972554E-004	1.2465603E+003
2	0	0	0	3.720919906001654E+001	-9.6094233E-001	-9.6126026E-001	-7.721155908322010E-001	-2.0700479E-002	11	7.4220402E-004	1.2449694E+003
2	0	0	0	3.740919905496412E+001	-9.6194232E-001	-9.6230334E-001	-7.740767246192455E-001	-2.0856010E-002	11	7.4489659E-004	1.2431627E+003
2	0	0	0	3.760919904991169E+001	-9.6294224E-001	-9.6324050E-001	-7.756469204067322E-001	-2.1011882E-002	11	7.4713456E-004	1.2418544E+003
2	0	0	0	3.780919904485927E+001	-9.6394211E-001	-9.6424967E-001	-7.773912830020642E-001	-2.1168094E-002	11	7.4959930E-004	1.2403660E+003
2	0	0	0	3.800919903980684E+001	-9.6494222E-001	-9.6527803E-001	-7.791209491075382E-001	-2.1324655E-002	11	7.5206836E-004	1.2389323E+003
2	0	0	0	3.820919903475442E+001	-9.6594220E-001	-9.6627235E-001	-7.807721412421751E-001	-2.1481568E-002	11	7.5443852E-004	1.2375856E+003
2	0	0	0	3.840919902970199E+001	-9.6694219E-001	-9.6728355E-001	-7.827356832435655E-001	-2.1638848E-002	11	7.5712736E-004	1.2357729E+003
2	0	0	0	3.860919902464957E+001	-9.6794218E-001	-9.6827364E-001	-7.845608834979778E-001	-2.1796498E-002	11	7.5966964E-004	1.2341600E+003
2	0	0	0	3.880919901959714E+001	-9.6894211E-001	-9.6926492E-001	-7.863140750904480E-001	-2.1954501E-002	11	7.6214666E-004	1.2326689E+003
2	0	0	0	3.900919901454472E+001	-9.6994209E-001	-9.7028375E-001	-7.890089417379080E-001	-2.2112949E-002	11	7.6556252E-004	1.2297500E+003
2	0	0	0	3.920919900949229E+001	-9.7094202E-001	-9.7125047E-001	-7.907521985893595E-001	-2.2271840E-002	11	7.6801842E-004	1.2282615E+003
2	0	0	0	3.940919900443987E+001	-9.7194195E-001	-9.7224271E-001	-7.928351527776876E-001	-2.2431098E-002	11	7.7082822E-004	1.2262861E+003
2	0	0	1	3.960919899938744E+001	-9.7294217E-001	-9.7330505E-001	-7.943528027781923E-001	-2.2590701E-002	11	7.7314756E-004	1.2252805E+003
2	0	0	1	3.980909899433755E+001	-9.7394234E-001	-9.7423488E-001	-7.959131319011412E-001	-2.2750551E-002	11	7.7540631E-004	1.2240468E+003
2	0	0	1	4.000909898928512E+001	-9.7494239E-001	-9.7529733E-001	-7.975865947159271E-001	-2.2910813E-002	11	7.7788410E-004	1.2228105E+003
2	0	0	1	4.020899898423522E+001	-9.7594196E-001	-9.7625518E-001	-7.993145173166347E-001	-2.3071332E-002	11	7.8033493E-004	1.2213655E+003
2	0	0	1	4.040899897918280E+001	-9.7694188E-001	-9.7726536E-001	-8.020154945383373E-001	-2.3232374E-002	11	7.8378199E-004	1.2185118E+003
2	0	0	1	4.060899897413037E+001	-9.7794187E-001	-9.7830325E-001	-8.045877778476067E-001	-2.3393942E-002	11	7.8713085E-004	1.2159061E+003
2	0	0	1	4.080899896907795E+001	-9.7894186E-001	-9.7929025E-001	-8.063003771986921E-001	-2.3555914E-002	11	7.8960211E-004	1.2145477E+003
2	0	0	1	4.100899896402552E+001	-9.7994190E-001	-9.8026866E-001	-8.080658577804911E-001	-2.3718227E-002	11	7.9212163E-004	1.2131049E+003
2	0	0	1	4.120899895897310E+001	-9.8094189E-001	-9.8130107E-001	-8.097302508952247E-001	-2.3880869E-002	11	7.9458917E-004	1.2118864E+003
2	0	0	1	4.140899895392067E+001	-9.8194182E-001	-9.8227334E-001	-8.112965158594458E-001	-2.4043838E-002	11	7.9691492E-004	1.2107451E+003
2	0	0	1	4.160899894886825E+001	-9.8294187E-001	-9.8323584E-001	-8.130164934056126E-001	-2.4207130E-002	11	7.9938694E-004	1.2093677E+003
2	0	0	1	4.180899894381582E+001	-9.8394173E-001	-9.8429370E-001	-8.146424587655492E-001	-2.4370747E-002	11	8.0184743E-004	1.2082524E+003
2	0	0	1	4.200899893876340E+001	-9.8494166E-001	-9.8520756E-001	-8.161951089763573E-001	-2.4534686E-002	11	8.0412161E-004	1.2070736E+003
2	0	0	1	4.220899893371097E+001	-9.8594177E-001	-9.8629636E-001	-8.179561995020528E-001	-2.4698971E-002	11	8.0674724E-004	1.2058058E+003
2	0	0	1	4.240899892865855E+001	-9.8694175E-001	-9.8722172E-001	-8.197532721167935E-001	-2.4863593E-002	11	8.0927822E-004	1.2042913E+003
2	0	0	1	4.260899892360612E+001	-9.8794168E-001	-9.8824900E-001	-8.214067711986921E-001	-2.5028557E-002	11	8.1175443E-004	1.2031177E+003
2	0	0	1	4.280899891855370E+001	-9.8894173E-001	-9.8924869E-001	-8.233898677725939E-001	-2.5193878E-002	11	8.1453734E-004	1.2014341E+003
2	0	0	1	4.300899891350127E+001	-9.8994166E-001	-9.9026412E-001	-8.249341444938096E-001	-2.5359547E-002	11	8.1690267E-004	1.2004160E+003
2	0	0	1	4.320899890844885E+001	-9.9094152E-001	-9.9127024E-001	-8.270845018884749E-001	-2.5525585E-002	11	8.1986428E-004	1.1985115E+003
2	0	0	1	4.340899890339642E+001	-9.9194157E-001	-9.9222541E-001	-8.288741119189055E-001	-2.5691999E-002	11	8.2242995E-004	1.1970762E+003
2	0	0	1	4.360899889834400E+001	-9.9294162E-001	-9.9324095E-001	-8.304267803844780E-001	-2.5858743E-002	11	8.2481391E-004	1.1960608E+003
2	0	0	1	4.380899889329157E+001	-9.9394155E-001	-9.9423635E-001	-8.320715586378249E-001	-2.6025807E-002	11	8.2727580E-004	1.1948928E+003
2	0	0	1	4.400899888823915E+001	-9.9494159E-001	-9.9524456E-001	-8.337886830170991E-001	-2.6193209E-002	11	8.2982366E-004	1.1936412E+003
2	0	0	1	4.420899888318672E+001	-9.9594152E-001	-9.9627286E-001	-8.355658019126271E-001	-2.6360957E-002	11	8.3245151E-004	1.1923333E+003
2	0	0	1	4.440899887813430E+001	-9.9694151E-001	-9.9721086E-001	-8.374099495341287E-001	-2.6529063E-002	11	8.3507429E-004	1.1908276E+003
2	0	0	1	4.460899887308187E+001	-9.9794143E-001	-9.9822873E-001	-8.396202835197339E-001	-2.6697563E-002	11	8.3813310E-004	1.1889050E+003
2	0	0	1	4.480899886802945E+001	-9.9894136E-001	-9.9926746E-001	-8.414095733525944E-001	-2.6866483E-002	11	8.4079319E-004	1.1876112E+003
2	0	0	1	4.500899886297702E+001	-9.9994141E-001	-1.0002894E+000	-8.428382371507928E-001	-2.7035708E-002	11	8.4308221E-004	1.1868107E+003
2	0	0	1	4.520899885792460E+001	-1.0009415E+000	-1.0013220E+000	-8.443364944824250E-001	-2.7205231E-002	11	8.4545271E-004	1.1859277E+003
2	0	0	1	4.540899885287217E+001	-1.0019416E+000	-1.0022675E+000	-8.461733641031159E-001	-2.7375078E-002	11	8.4809202E-004	1.1844706E+003
2	0	0	1	4.560899884781975E+001	-1.0029414E+000	-1.0032672E+000	-8.477187691902603E-001	-2.7545255E-002	11	8.5048843E-004	1.1834906E+003
2	0	0	1	4.580899884276732E+001	-1.0039413E+000	-1.0042787E+000	-8.492056825483338E-001	-2.7715731E-002	11	8.5283915E-004	1.1826095E+003
2	0	0	1	4.600899883771490E+001	-1.0049413E+000	-1.0052890E+000	-8.508210003697023E-001	-2.7886510E-002	11	8.5532095E-004	1.1815516E+003
2	0	0	1	4.620899883266247E+001	-1.0059413E+000	-1.0062503E+000	-8.524954286477850E-001	-2.8057616E-002	11	8.5782376E-004	1.1803585E+003
2	0	0	1	4.640899882761005E+001	-1.0069413E+000	-1.0072553E+000	-8.546682947870714E-001	-2.8229097E-002	11	8.6086919E-004	1.1785336E+003
2	0	0	1	4.660899882255762E+001	-1.0079414E+000	-1.0082486E+000	-8.567138182974974E-001	-2.8400987E-002	11	8.6378050E-004	1.1768790E+003
2	0	0	1	4.680899881750520E+001	-1.0089413E+000	-1.0092759E+000	-8.579394580488042E-001	-2.8573211E-002	11	8.6589763E-004	1.1763953E+003
2	0	0	1	4.700899881245277E+001	-1.0099412E+000	-1.0102946E+000	-8.593497892626212E-001	-2.8745709E-002	11	8.6819642E-004	1.1756500E+003
2	0	0	1	4.720899880740035E+001	-1.0109411E+000	-1.0112900E+000	-8.607364085053106E-001	-2.8918479E-002	11	8.7045407E-004	1.1749125E+003
2	0	0	1	4.740899880234792E+001	-1.0119411E+000	-1.0122641E+000	-8.622077635812495E-001	-2.9091520E-002	11	8.7278197E-004	1.1740374E+003
2	0	0	1	4.760899879729550E+001	-1.0129412E+000	-1.0132267E+000	-8.637891773835626E-001	-2.9264839E-002	11	8.7521429E-004	1.1730023E+003
2	0	0	1	4.780899879224307E+001	-1.0139413E+000	-1.0142486E+000	-8.647980831326931E-001	-2.9438427E-002	11	8.7712024E-004	1.1728156E+003
2	0	0	1	4.800899878719065E+001	-1.0149411E+000	-1.0152749E+000	-8.662887554607277E-001	-2.9612271E-002	11	8.7952119E-004	1.1719821E+003
2	0	0	1	4.820899878213822E+001	-1.0159411E+000	-1.0162427E+000	-8.679649548313684E-001	-2.9786419E-002	11	8.8206306E-004	1.1708339E+003
2	0	0	1	4.840899877708580E+001	-1.0169411E+000	-1.0172744E+000	-8.695687367589375E-001	-2.9960895E-002	11	8.8458997E-004	1.1698608E+003
2	0	0	1	4.860899877203337E+001	-1.0179411E+000	-1.0182697E+000	-8.710274347232669E-001	-3.0135674E-002	11	8.8694080E-004	1.1690443E+003
2	0	0	1	4.880879876698600E+001	-1.0189407E+000	-1.0192796E+000	-8.722352978082911E-001	-3.0310534E-002	11	8.8905165E-004	1.1685833E+003
2	0	0	1	4.900889876193105E+001	-1.0199410E+000	-1.0202892E+000	-8.734631828460451E-001	-3.0485883E-002	11	8.9118502E-004	1.1680964E+003
2	0	0	1	4.920879875688115E+001	-1.0209410E+000	-1.0212885E+000	-8.747277954597088E-001	-3.0661296E-002	11	8.9334947E-004	1.1675500E+003
2	0	0	1	4.940879875182873E+001	-1.0219408E+000	-1.0222301E+000	-8.758502314084780E-001	-3.0837031E-002	11	8.9532050E-004	1.1671289E+003
2	0	0	0	4.960879874677630E+001	-1.0229409E+000	-1.0232859E+000	-8.770547883158528E-001	-3.1012991E-002	11	8.9747779E-004	1.1667297E+003
2	0	0	0	4.980879874172388E+001	-1.0239409E+000	-1.0242676E+000	-8.778416147780810E-001	-3.1189151E-002	11	8.9914468E-004	1.1668022E+003
2	0	0	0	5.000879873667145E+001	-1.0249408E+000	-1.0252715E+000	-8.788197164987626E-001	-3.1365484E-002	11	9.0102886E-004	1.1666460E+003
2	0	0	0	5.020879873161903E+001	-1.0259408E+000	-1.0262223E+000	-8.800728106512281E-001	-3.1542029E-002	11	9.0315036E-004	1.1660653E+003
2	0	0	0	5.040879872656660E+001	-1.0269408E+000	-1.0272506E+000	-8.811961852875694E-001	-3.1718802E-002	11	9.0520934E-004	1.1657457E+003
2	0	0	0	5.060879872151418E+001	-1.0279409E+000	-1.0282376E+000	-8.823135426255284E-001	-3.1895798E-002	11	9.0722792E-004	1.1653879E+003
2	0	0	0	5.080879871646175E+001	-1.0289408E+000	-1.0292445E+000	-8.834495147914048E-001	-3.2073013E-002	11	9.0928562E-004	1.1650293E+003
2	0	0	0	5.100879871140933E+001	-1.0299408E+000	-1.0302432E+000	-8.844809166901229E-001	-3.2250438E-002	11	9.1123040E-004	1.1647998E+003
2	0	0	0	5.120879870635690E+001	-1.0309408E+000	-1.0312419E+000	-8.853069831978306E-001	-3.2428041E-002	11	9.1296562E-004	1.1648411E+003
2	0	0	0	5.140879870130448E+001	-1.0319407E+000	-1.0322448E+000	-8.862293637241514E-001	-3.2605827E-002	11	9.1480563E-004	1.1647604E+003
2	0	0	0	5.160879869625205E+001	-1.0329406E+000	-1.0332443E+000	-8.872083228698120E-001	-3.2783795E-002	11	9.1670291E-004	1.1646016E+003
2	0	0	0	5.180879869119963E+001	-1.0339407E+000	-1.0342547E+000	-8.881030153745022E-001	-3.2961950E-002	11	9.1852469E-004	1.1645662E+003
2	0	0	0	5.200879868614720E+001	-1.0349406E+000	-1.0352544E+000	-8.890534413813747E-001	-3.3140287E-002	11	9.2039647E-004	1.1644456E+003
2	0	0	0	5.220879868109478E+001	-1.0359406E+000	-1.0362592E+000	-8.901839091900730E-001	-3.3318829E-002	11	9.2246121E-004	1.1640956E+003
2	0	0	0	5.240879867604235E+001	-1.0369406E+000	-1.0372483E+000	-8.914153552920392E-001	-3.3497587E-002	11	9.2461903E-004	1.1635970E+003
2	0	0	0	5.260879867098993E+001	-1.0379406E+000	-1.0382681E+000	-8.923137417472802E-001	-3.3676554E-002	11	9.2646090E-004	1.1635684E+003
2	0	0	0	5.280879866593750E+001	-1.0389405E+000	-1.0392561E+000	-8.932585333328280E-001	-3.3855695E-002	11	9.2832436E-004	1.1634438E+003
2	0	0	0	5.300879866088508E+001	-1.0399405E+000	-1.0402610E+000	-8.942058270547939E-001	-3.4035012E-002	11	9.3020749E-004	1.1633351E+003
2	0	0	0	5.320879865583265E+001	-1.0409405E+000	-1.0412470E+000	-8.949897537037508E-001	-3.4214500E-002	11	9.3190541E-004	1.1634178E+003
2	0	0	0	5.340879865078023E+001	-1.0419406E+000	-1.0422318E+000	-8.958620756543514E-001	-3.4394152E-002	11	9.3369593E-004	1.1633842E+003
2	0	0	0	5.360879864572780E+001	-1.0429406E+000	-1.0432135E+000	-8.967018451398054E-001	-3.4573980E-002	11	9.3545148E-004	1.1633895E+003
2	0	0	0	5.380879864067538E+001	-1.0439405E+000	-1.0442609E+000	-8.976047001187761E-001	-3.4753967E-002	11	9.3733345E-004	1.1633861E+003
2	0	0	0	5.400879863562295E+001	-1.0449405E+000	-1.0452393E+000	-8.984904338662698E-001	-3.4934122E-002	11	9.3913754E-004	1.1633282E+003
2	0	0	0	5.420879863057053E+001	-1.0459404E+000	-1.0461988E+000	-8.993374415147457E-001	-3.5114434E-002	11	9.4088580E-004	1.1632996E+003
2	0	0	0	5.440879862551810E+001	-1.0469403E+000	-1.0472546E+000	-9.000608725409940E-001	-3.5294905E-002	11	9.4259286E-004	1.1635375E+003
2	0	0	0	5.460879862046568E+001	-1.0479404E+000	-1.0482415E+000	-9.008081407199624E-001	-3.5475522E-002	11	9.4426447E-004	1.1636678E+003
2	0	0	0	5.480879861541325E+001	-1.0489404E+000	-1.0492221E+000	-9.016971623275813E-001	-3.5656296E-002	11	9.4608060E-004	1.1636080E+003
2	0	0	0	5.500879861036083E+001	-1.0499403E+000	-1.0502514E+000	-9.024901714032367E-001	-3.5837229E-002	11	9.4784156E-004	1.1637261E+003
2	0	0	0	5.520879860530840E+001	-1.0509404E+000	-1.0512002E+000	-9.032961945482398E-001	-3.6018323E-002	11	9.4954512E-004	1.1637380E+003
2	0	0	0	5.540879860025598E+001	-1.0519403E+000	-1.0522411E+000	-9.040938253998085E-001	-3.6199555E-002	11	9.5132465E-004	1.1638627E+003
2	0	0	0	5.560879859520355E+001	-1.0529401E+000	-1.0533066E+000	-9.049403801425235E-001	-3.6380954E-002	11	9.5317967E-004	1.1639513E+003
2	0	0	0	5.580879859015113E+001	-1.0539402E+000	-1.0542786E+000	-9.057362863113969E-001	-3.6562517E-002	11	9.5489842E-004	1.1640017E+003
2	0	0	0	5.600879858509870E+001	-1.0549403E+000	-1.0552371E+000	-9.065980663746913E-001	-3.6744226E-002	11	9.5667585E-004	1.1639525E+003
2	0	0	0	5.620879858004628E+001	-1.0559403E+000	-1.0562494E+000	-9.073566453375115E-001	-3.6926091E-002	11	9.5839490E-004	1.1640951E+003
2	0	0	0	5.640879857499385E+001	-1.0569402E+000	-1.0572520E+000	-9.081544614399100E-001	-3.7108112E-002	11	9.6014817E-004	1.1641765E+003
2	0	0	0	5.660879856994143E+001	-1.0579401E+000	-1.0582560E+000	-9.089740214282269E-001	-3.7290297E-002	11	9.6192723E-004	1.1642313E+003
2	0	0	0	5.680879856488900E+001	-1.0589402E+000	-1.0592378E+000	-9.098111775929709E-001	-3.7472636E-002	11	9.6370641E-004	1.1642393E+003
2	0	0	0	5.700879855983658E+001	-1.0599401E+000	-1.0602576E+000	-9.105544344114449E-001	-3.7655126E-002	11	9.6542219E-004	1.1644088E+003
2	0	0	0	5.720879855478415E+001	-1.0609401E+000	-1.0611978E+000	-9.114064872687191E-001	-3.7837774E-002	11	9.6718251E-004	1.1643518E+003
2	0	0	1	5.740869854973425E+001	-1.0619398E+000	-1.0622122E+000	-9.121253579104032E-001	-3.8020480E-002	11	9.6887071E-004	1.1645463E+003
2	0	0	1	5.760869854468183E+001	-1.0629399E+000	-1.0632310E+000	-9.129045794460993E-001	-3.8203429E-002	11	9.7062846E-004	1.1646682E+003
2	0	0	1	5.780869853962940E+001	-1.0639402E+000	-1.0642500E+000	-9.137364839481723E-001	-3.8386527E-002	11	9.7244408E-004	1.1647231E+003
2	0	0	1	5.800869853457698E+001	-1.0649403E+000	-1.0652679E+000	-9.148127963235639E-001	-3.8569801E-002	11	9.7452075E-004	1.1644655E+003
2	0	0	1	5.820859852952708E+001	-1.0659399E+000	-1.0662110E+000	-9.157989883537745E-001	-3.8753189E-002	11	9.7643497E-004	1.1642413E+003
2	0	0	1	5.840859852447466E+001	-1.0669399E+000	-1.0672022E+000	-9.164410117853112E-001	-3.8936827E-002	11	9.7802782E-004	1.1645072E+003
2	0	0	1	5.860859851942223E+001	-1.0679399E+000	-1.0682210E+000	-9.172842786679070E-001	-3.9120622E-002	11	9.7986229E-004	1.1645474E+003
2	0	0	1	5.880859851436981E+001	-1.0689399E+000	-1.0692894E+000	-9.182602209028476E-001	-3.9304592E-002	11	9.8188594E-004	1.1644733E+003
2	0	0	1	5.900859850931738E+001	-1.0699399E+000	-1.0702118E+000	-9.193409611544894E-001	-3.9488759E-002	11	9.8388956E-004	1.1641075E+003
2	0	0	1	5.920859850426496E+001	-1.0709399E+000	-1.0712082E+000	-9.202570401030723E-001	-3.9673120E-002	11	9.8578690E-004	1.1640316E+003
2	0	0	1	5.940859849921253E+001	-1.0719399E+000	-1.0722249E+000	-9.210340227855713E-001	-3.9857633E-002	11	9.8755560E-004	1.1641533E+003
2	0	0	1	5.960859849416011E+001	-1.0729399E+000	-1.0732247E+000	-9.220319798051477E-001	-4.0042318E-002	11	9.8954746E-004	1.1639777E+003
2	0	0	1	5.980859848910768E+001	-1.0739398E+000	-1.0742009E+000	-9.230415997625485E-001	-4.0227208E-002	11	9.9153211E-004	1.1637621E+003
2	0	0	1	6.000859848405526E+001	-1.0749397E+000	-1.0752206E+000	-9.241916776852257E-001	-4.0412311E-002	11	9.9370989E-004	1.1634174E+003
2	0	0	1	6.020859847900283E+001	-1.0759398E+000	-1.0762256E+000	-9.266822328643199E-001	-4.0597778E-002	11	9.9731924E-004	1.1613751E+003
2	0	0	1	6.040859847395041E+001	-1.0769397E+000	-1.0771977E+000	-9.278384858231306E-001	-4.0783603E-002	11	9.9946547E-004	1.1609755E+003
2	0	0	1	6.060859846889798E+001	-1.0779397E+000	-1.0782450E+000	-9.286083336032611E-001	-4.0969618E-002	11	1.0012673E-003	1.1611409E+003
2	0	0	1	6.080859846384556E+001	-1.0789397E+000	-1.0792650E+000	-9.295521871083308E-001	-4.1155796E-002	11	1.0032331E-003	1.1610591E+003
2	0	0	1	6.100859845879313E+001	-1.0799397E+000	-1.0802212E+000	-9.303915093308710E-001	-4.1342147E-002	11	1.0050286E-003	1.1610394E+003
2	0	0	1	6.120859845374071E+001	-1.0809395E+000	-1.0811772E+000	-9.312627547570482E-001	-4.1528665E-002	11	1.0068601E-003	1.1609797E+003
2	0	0	1	6.140859844868828E+001	-1.0819396E+000	-1.0822003E+000	-9.322731256180923E-001	-4.1715376E-002	11	1.0089063E-003	1.1608190E+003
2	0	0	1	6.160859844363586E+001	-1.0829396E+000	-1.0832350E+000	-9.330990585897609E-001	-4.1902270E-002	11	1.0107656E-003	1.1609004E+003
2	0	0	1	6.180859843858343E+001	-1.0839397E+000	-1.0842271E+000	-9.341069183263766E-001	-4.2089347E-002	11	1.0127840E-003	1.1607098E+003
2	0	0	1	6.200859843353101E+001	-1.0849396E+000	-1.0852449E+000	-9.350881886978968E-001	-4.2276613E-002	11	1.0147997E-003	1.1605802E+003
2	0	0	1	6.220859842847858E+001	-1.0859395E+000	-1.0862254E+000	-9.360339312123571E-001	-4.2464063E-002	11	1.0167438E-003	1.1604552E+003
2	0	0	1	6.240859842342616E+001	-1.0869395E+000	-1.0872411E+000	-9.370206110601771E-001	-4.2651705E-002	11	1.0187672E-003	1.1603171E+003
2	0	0	1	6.260859841837373E+001	-1.0879394E+000	-1.0882322E+000	-9.379806237172730E-001	-4.2839542E-002	11	1.0207407E-003	1.1601862E+003
2	0	0	1	6.280859841332131E+001	-1.0889394E+000	-1.0892329E+000	-9.390219670726765E-001	-4.3027569E-002	11	1.0228136E-003	1.1599653E+003
2	0	0	1	6.300859840826888E+001	-1.0899395E+000	-1.0901955E+000	-9.400127264259179E-001	-4.3215793E-002	11	1.0247977E-003	1.1597667E+003
2	0	0	1	6.320859840321646E+001	-1.0909394E+000	-1.0911686E+000	-9.409472728464934E-001	-4.3404222E-002	11	1.0267321E-003	1.1596490E+003
2	0	0	1	6.340859839816403E+001	-1.0919394E+000	-1.0922149E+000	-9.422298302354459E-001	-4.3592870E-002	11	1.0291175E-003	1.1591810E+003
2	0	0	1	6.360859839311161E+001	-1.0929394E+000	-1.0932199E+000	-9.436502969504881E-001	-4.3781769E-002	11	1.0316173E-003	1.1585011E+003
2	0	0	1	6.380859838805918E+001	-1.0939393E+000	-1.0942185E+000	-9.446676853799190E-001	-4.3970909E-002	11	1.0336728E-003	1.1583105E+003
2	0	0	1	6.400859838300676E+001	-1.0949394E+000	-1.0952245E+000	-9.458445755853511E-001	-4.4160284E-002	11	1.0359122E-003	1.1579329E+003
2	0	0	1	6.420859837795433E+001	-1.0959394E+000	-1.0962178E+000	-9.469807332216895E-001	-4.4349883E-002	11	1.0380971E-003	1.1575924E+003
2	0	0	1	6.440859837290191E+001	-1.0969393E+000	-1.0971677E+000	-9.481471184970552E-001	-4.4539709E-002	11	1.0402764E-003	1.1571703E+003
2	0	0	1	6.460859836784948E+001	-1.0979393E+000	-1.0982077E+000	-9.505878615862504E-001	-4.4729885E-002	11	1.0439429E-003	1.1552932E+003
2	0	0	1	6.480859836279706E+001	-1.0989392E+000	-1.0992411E+000	-9.521544820496004E-001	-4.4920474E-002	11	1.0466474E-003	1.1544777E+003
2	0	0	1	6.500859835774463E+001	-1.0999392E+000	-1.1001930E+000	-9.531372653028996E-001	-4.5111310E-002	11	1.0486350E-003	1.1542860E+003
2	0	0	1	6.520859835269221E+001	-1.1009392E+000	-1.1012278E+000	-9.543140543426207E-001	-4.5302361E-002	11	1.0509171E-003	1.1539469E+003
2	0	0	1	6.540859834763978E+001	-1.1019392E+000	-1.1022497E+000	-9.554556108876016E-001	-4.5493647E-002	11	1.0531507E-003	1.1536378E+003
2	0	0	1	6.560859834258736E+001	-1.1029392E+000	-1.1032600E+000	-9.588507825082111E-001	-4.5685373E-002	11	1.0578617E-003	1.1506066E+003
2	0	0	1	6.580859833753493E+001	-1.1039392E+000	-1.1042066E+000	-9.611008011666282E-001	-4.5877676E-002	11	1.0612538E-003	1.1488977E+003
2	0	0	1	6.600859833248251E+001	-1.1049391E+000	-1.1052635E+000	-9.624982094582233E-001	-4.6070345E-002	11	1.0638142E-003	1.1483279E+003
2	0	0	1	6.620849832743261E+001	-1.1059387E+000	-1.1062194E+000	-9.637722788565775E-001	-4.6263177E-002	11	1.0661436E-003	1.1478016E+003
2	0	0	1	6.640859832237766E+001	-1.1069393E+000	-1.1072346E+000	-9.651831644103197E-001	-4.6456464E-002	11	1.0686842E-003	1.1471757E+003
2	0	0	1	6.660849831732776E+001	-1.1079391E+000	-1.1082233E+000	-9.665138675260461E-001	-4.6649821E-002	11	1.0711132E-003	1.1466191E+003
2	0	0	1	6.680849831227533E+001	-1.1089393E+000	-1.1092274E+000	-9.680081037955250E-001	-4.6843562E-002	11	1.0737411E-003	1.1458865E+003
2	0	0	1	6.700849830722291E+001	-1.1099395E+000	-1.1101923E+000	-9.695513050857372E-001	-4.7037605E-002	11	1.0763884E-003	1.1450579E+003
2	0	0	0	6.720839830217301E+001	-1.1109389E+000	-1.1111947E+000	-9.712230239629474E-001	-4.7231872E-002	11	1.0792179E-003	1.1441190E+003
2	0	0	0	6.740839829712058E+001	-1.1119390E+000	-1.1121986E+000	-9.726791904136807E-001	-4.7426544E-002	11	1.0818124E-003	1.1434382E+003
2	0	0	0	6.760839829206816E+001	-1.1129390E+000	-1.1131845E+000	-9.740404136850600E-001	-4.7621507E-002	11	1.0842866E-003	1.1428524E+003
2	0	0	0	6.780839828701573E+001	-1.1139389E+000	-1.1142044E+000	-9.754945867084626E-001	-4.7816753E-002	11	1.0869004E-003	1.1421943E+003
2	0	0	0	6.800839828196331E+001	-1.1149389E+000	-1.1151795E+000	-9.770312562179413E-001	-4.8012283E-002	11	1.0895652E-003	1.1413960E+003
2	0	0	0	6.820839827691088E+001	-1.1159389E+000	-1.1162512E+000	-9.784304891246300E-001	-4.8208099E-002	11	1.0921742E-003	1.1408590E+003
2	0	0	0	6.840839827185846E+001	-1.1169388E+000	-1.1172763E+000	-9.802142971632428E-001	-4.8404239E-002	11	1.0951703E-003	1.1398286E+003
2	0	0	0	6.860839826680603E+001	-1.1179388E+000	-1.1181955E+000	-9.820433545122746E-001	-4.8600748E-002	11	1.0981165E-003	1.1386417E+003
2	0	0	0	6.880839826175361E+001	-1.1189388E+000	-1.1191815E+000	-9.840972205104475E-001	-4.8797641E-002	11	1.1013835E-003	1.1372672E+003
2	0	0	0	6.900839825670118E+001	-1.1199387E+000	-1.1201980E+000	-9.862425255582838E-001	-4.8994977E-002	11	1.1047869E-003	1.1358241E+003
2	0	0	0	6.920839825164876E+001	-1.1209388E+000	-1.1212137E+000	-9.889784209143002E-001	-4.9192809E-002	11	1.1088562E-003	1.1337090E+003
2	0	0	0	6.940839824659633E+001	-1.1219387E+000	-1.1221952E+000	-9.909008098618344E-001	-4.9391069E-002	11	1.1119841E-003	1.1325001E+003
2	0	0	0	6.960839824154391E+001	-1.1229388E+000	-1.1231855E+000	-9.926060248681630E-001	-4.9589705E-002	11	1.1148807E-003	1.1315521E+003
2	0	0	0	6.980839823649148E+001	-1.1239387E+000	-1.1241786E+000	-9.954046295140557E-001	-4.9788792E-002	11	1.1190126E-003	1.1293685E+003
2	0	0	0	7.000839823143906E+001	-1.1249387E+000	-1.1251889E+000	-9.970571122590499E-001	-4.9988311E-002	11	1.1218777E-003	1.1285100E+003
2	0	0	0	7.020839822638663E+001	-1.1259388E+000	-1.1261950E+000	-1.000010936616025E+000	-5.0188277E-002	11	1.1262073E-003	1.1261826E+003
2	0	0	0	7.040839822133421E+001	-1.1269386E+000	-1.1272666E+000	-1.002405722082809E+000	-5.0388809E-002	11	1.1299786E-003	1.1245613E+003
2	0	0	0	7.060839821628178E+001	-1.1279385E+000	-1.1282685E+000	-1.003795011775765E+000	-5.0589688E-002	11	1.1325503E-003	1.1240029E+003
2	0	0	0	7.080839821122936E+001	-1.1289386E+000	-1.1292214E+000	-1.005285009505261E+000	-5.0790858E-002	11	1.1351894E-003	1.1232849E+003
2	0	0	0	7.100839820617693E+001	-1.1299385E+000	-1.1302465E+000	-1.007010023297571E+000	-5.0992347E-002	11	1.1381696E-003	1.1223787E+003
2	0	0	0	7.120839820112451E+001	-1.1309385E+000	-1.1312124E+000	-1.009007716336017E+000	-5.1194206E-002	11	1.1414019E-003	1.1211136E+003
2	0	0	0	7.140839819607208E+001	-1.1319386E+000	-1.1322216E+000	-1.012947836734543E+000	-5.1396687E-002	11	1.1468814E-003	1.1177491E+003
2	0	0	0	7.160839819101966E+001	-1.1329385E+000	-1.1332351E+000	-1.013661186128449E+000	-5.1599577E-002	11	1.1487164E-003	1.1179624E+003
2	0	0	0	7.180839818596723E+001	-1.1339384E+000	-1.1342686E+000	-1.014384762322756E+000	-5.1802624E-002	11	1.1505848E-003	1.1181838E+003
2	0	0	0	7.200839818091481E+001	-1.1349384E+000	-1.1352651E+000	-1.015912035678655E+000	-5.2005906E-002	11	1.1533295E-003	1.1174836E+003
2	0	0	0	7.220839817586239E+001	-1.1359383E+000	-1.1362404E+000	-1.019292092107049E+000	-5.2209679E-002	11	1.1581609E-003	1.1147347E+003
2	0	0	0	7.240839817080996E+001	-1.1369385E+000	-1.1372443E+000	-1.020339699314226E+000	-5.2413914E-002	11	1.1603755E-003	1.1145742E+003
2	0	0	0	7.260839816575754E+001	-1.1379385E+000	-1.1382536E+000	-1.021537887114107E+000	-5.2618340E-002	11	1.1627692E-003	1.1142549E+003
2	0	0	0	7.280839816070511E+001	-1.1389384E+000	-1.1391981E+000	-1.023485204682192E+000	-5.2823082E-002	11	1.1659524E-003	1.1130576E+003
2	0	0	0	7.300839815565269E+001	-1.1399384E+000	-1.1402506E+000	-1.025061571974803E+000	-5.3028189E-002	11	1.1688271E-003	1.1123728E+003
2	0	0	0	7.320839815060026E+001	-1.1409383E+000	-1.1412216E+000	-1.026745055639550E+000	-5.3233616E-002	11	1.1717437E-003	1.1114946E+003
2	0	0	0	7.340839814554784E+001	-1.1419382E+000	-1.1422298E+000	-1.028519523133635E+000	-5.3439382E-002	11	1.1748057E-003	1.1105573E+003
2	0	0	0	7.360839814049541E+001	-1.1429383E+000	-1.1432379E+000	-1.030476429396201E+000	-5.3645525E-002	11	1.1780798E-003	1.1094266E+003
2	0	0	0	7.380839813544299E+001	-1.1439383E+000	-1.1442155E+000	-1.032405525859861E+000	-5.3852055E-002	11	1.1812943E-003	1.1083004E+003
2	0	0	0	7.400839813039056E+001	-1.1449382E+000	-1.1451970E+000	-1.034272422832418E+000	-5.4058962E-002	11	1.1844457E-003	1.1072489E+003
2	0	0	0	7.420839812533814E+001	-1.1459382E+000	-1.1463027E+000	-1.036231048236222E+000	-5.4266252E-002	11	1.1878344E-003	1.1062230E+003
2	0	0	0	7.440839812028571E+001	-1.1469382E+000	-1.1472346E+000	-1.038276891707696E+000	-5.4473948E-002	11	1.1911471E-003	1.1049409E+003
2	0	0	0	7.460839811523329E+001	-1.1479380E+000	-1.1482300E+000	-1.040624017812426E+000	-5.4682083E-002	11	1.1948757E-003	1.1034052E+003
2	0	0	0	7.480839811018086E+001	-1.1489381E+000	-1.1492052E+000	-1.042752590005087E+000	-5.4890659E-002	11	1.1983367E-003	1.1020881E+003
2	0	0	0	7.500839810512844E+001	-1.1499382E+000	-1.1502377E+000	-1.044693354441198E+000	-5.5099644E-002	11	1.2016457E-003	1.1010291E+003
2	0	0	1	7.520829810007854E+001	-1.1509379E+000	-1.1512747E+000	-1.046809350233261E+000	-5.5308934E-002	11	1.2051651E-003	1.0997941E+003
2	0	0	1	7.540839809502359E+001	-1.1519383E+000	-1.1522447E+000	-1.049415148747443E+000	-5.5518892E-002	11	1.2091830E-003	1.0979874E+003
2	0	0	1	7.560829808997369E+001	-1.1529382E+000	-1.1532708E+000	-1.052209296845174E+000	-5.5729177E-002	11	1.2134823E-003	1.0960470E+003
2	0	0	1	7.580829808492126E+001	-1.1539384E+000	-1.1542737E+000	-1.054813473632336E+000	-5.5940121E-002	11	1.2175435E-003	1.0942919E+003
2	0	0	1	7.600819807987136E+001	-1.1549380E+000	-1.1552646E+000	-1.057339452916670E+000	-5.6151472E-002	11	1.2215069E-003	1.0926147E+003
2	0	0	1	7.620819807481894E+001	-1.1559380E+000	-1.1562495E+000	-1.059522873825499E+000	-5.6363389E-002	11	1.2250728E-003	1.0912926E+003
2	0	0	1	7.640819806976651E+001	-1.1569380E+000	-1.1572480E+000	-1.062404372566746E+000	-5.6575816E-002	11	1.2294654E-003	1.0892727E+003
2	0	0	1	7.660819806471409E+001	-1.1579379E+000	-1.1582425E+000	-1.066741932800159E+000	-5.6788988E-002	11	1.2355458E-003	1.0857756E+003
2	0	0	1	7.680819805966166E+001	-1.1589378E+000	-1.1592634E+000	-1.069356307885745E+000	-5.7002835E-002	11	1.2396656E-003	1.0840759E+003
2	0	0	1	7.700819805460924E+001	-1.1599379E+000	-1.1602122E+000	-1.071752046072291E+000	-5.7217181E-002	11	1.2434598E-003	1.0825378E+003
2	0	0	1	7.720819804955681E+001	-1.1609378E+000	-1.1612912E+000	-1.074119545764326E+000	-5.7432007E-002	11	1.2473656E-003	1.0811564E+003
2	0	0	1	7.740819804450439E+001	-1.1619378E+000	-1.1622336E+000	-1.076603786027283E+000	-5.7647314E-002	11	1.2512651E-003	1.0795370E+003
2	0	0	1	7.760819803945196E+001	-1.1629378E+000	-1.1632620E+000	-1.079732665069860E+000	-5.7863176E-002	11	1.2560120E-003	1.0773611E+003
2	0	0	1	7.780819803439954E+001	-1.1639378E+000	-1.1642393E+000	-1.081734083575999E+000	-5.8079552E-002	11	1.2593974E-003	1.0762712E+003
2	0	0	1	7.800819802934711E+001	-1.1649377E+000	-1.1652210E+000	-1.084287899920122E+000	-5.8296375E-002	11	1.2634350E-003	1.0746417E+003
2	0	0	1	7.820819802429469E+001	-1.1659378E+000	-1.1662451E+000	-1.085583914840031E+000	-5.8513574E-002	11	1.2660569E-003	1.0743021E+003
2	0	0	1	7.840819801924226E+001	-1.1669378E+000	-1.1672490E+000	-1.085734637297872E+000	-5.8730938E-002	11	1.2673227E-003	1.0750776E+003
2	0	0	1	7.860819801418984E+001	-1.1679378E+000	-1.1682179E+000	-1.086437084490342E+000	-5.8948364E-002	11	1.2691952E-003	1.0752743E+003
2	0	0	1	7.880819800913741E+001	-1.1689376E+000	-1.1692175E+000	-1.087671362742135E+000	-5.9166003E-002	11	1.2717244E-003	1.0749731E+003
2	0	0	1	7.900819800408499E+001	-1.1699376E+000	-1.1702415E+000	-1.086412758555875E+000	-5.9383612E-002	11	1.2713653E-003	1.0771610E+003
2	0	0	1	7.920819799903256E+001	-1.1709375E+000	-1.1712348E+000	-1.088705278020729E+000	-5.9601348E-002	11	1.2751296E-003	1.0758053E+003
2	0	0	1	7.940819799398014E+001	-1.1719376E+000	-1.1722653E+000	-1.091557298286435E+000	-5.9819601E-002	11	1.2795947E-003	1.0739384E+003
2	0	0	1	7.960819798892771E+001	-1.1729375E+000	-1.1732427E+000	-1.094452849591399E+000	-6.0038421E-002	11	1.2840588E-003	1.0719901E+003
2	0	0	1	7.980819798387529E+001	-1.1739376E+000	-1.1741766E+000	-1.097457059673848E+000	-6.0257830E-002	11	1.2886084E-003	1.0699066E+003
2	0	0	1	8.000819797882286E+001	-1.1749375E+000	-1.1752685E+000	-1.100563965323900E+000	-6.0477853E-002	11	1.2934582E-003	1.0678784E+003
2	0	0	1	8.020819797377044E+001	-1.1759374E+000	-1.1762375E+000	-1.103669557340293E+000	-6.0698502E-002	11	1.2981775E-003	1.0657515E+003
2	0	0	1	8.040819796871801E+001	-1.1769375E+000	-1.1772043E+000	-1.106920262405863E+000	-6.0919791E-002	11	1.3030713E-003	1.0634951E+003
2	0	0	1	8.060819796366559E+001	-1.1779375E+000	-1.1782050E+000	-1.110273145316613E+000	-6.1141737E-002	11	1.3081294E-003	1.0611848E+003
2	0	0	1	8.080819795861316E+001	-1.1789376E+000	-1.1792163E+000	-1.113577118536242E+000	-6.1364345E-002	11	1.3131483E-003	1.0589445E+003
2	0	0	1	8.100819795356074E+001	-1.1799375E+000	-1.1802393E+000	-1.116963374760010E+000	-6.1587617E-002	11	1.3182841E-003	1.0566500E+003
2	0	0	1	8.120819794850831E+001	-1.1809374E+000	-1.1812210E+000	-1.120434293265784E+000	-6.1811581E-002	11	1.3234805E-003	1.0542528E+003
2	0	0	1	8.140819794345589E+001	-1.1819373E+000	-1.1822481E+000	-1.123919963895798E+000	-6.2036235E-002	11	1.3287523E-003	1.0518971E+003
2	0	0	1	8.160819793840346E+001	-1.1829373E+000	-1.1832403E+000	-1.127553022037898E+000	-6.2261611E-002	11	1.3341662E-003	1.0493877E+003
2	0	0	1	8.180819793335104E+001	-1.1839373E+000	-1.1842210E+000	-1.131266112095106E+000	-6.2487721E-002	11	1.3396691E-003	1.0468103E+003
2	0	0	1	8.200819792829861E+001	-1.1849374E+000	-1.1852025E+000	-1.134992355180904E+000	-6.2714569E-002	11	1.3451958E-003	1.0442383E+003
2	0	0	1	8.220819792324619E+001	-1.1859373E+000	-1.1862447E+000	-1.138795173990953E+000	-6.2942170E-002	11	1.3508898E-003	1.0416665E+003
2	0	0	1	8.240819791819376E+001	-1.1869373E+000	-1.1872030E+000	-1.142667412681845E+000	-6.3170545E-002	11	1.3565782E-003	1.0389751E+003
2	0	0	1	8.260819791314134E+001	-1.1879373E+000	-1.1882237E+000	-1.146681269922222E+000	-6.3399710E-002	11	1.3625139E-003	1.0362284E+003
2	0	0	1	8.280819790808891E+001	-1.1889371E+000	-1.1892277E+000	-1.150842064556557E+000	-6.3629687E-002	11	1.3686132E-003	1.0333544E+003
2	0	0	1	8.300819790303649E+001	-1.1899371E+000	-1.1901946E+000	-1.154946577479708E+000	-6.3860483E-002	11	1.3746112E-003	1.0305192E+003
2	0	0	1	8.320819789798406E+001	-1.1909373E+000	-1.1912282E+000	-1.159259517742594E+000	-6.4092129E-002	11	1.3809425E-003	1.0275768E+003
2	0	0	1	8.340819789293164E+001	-1.1919372E+000	-1.1922077E+000	-1.163563615087072E+000	-6.4324632E-002	11	1.3872095E-003	1.0246176E+003
2	0	0	1	8.360819788787921E+001	-1.1929371E+000	-1.1931999E+000	-1.167957807344100E+000	-6.4558014E-002	11	1.3936071E-003	1.0216121E+003
2	0	0	1	8.380819788282679E+001	-1.1939371E+000	-1.1942611E+000	-1.172556513307997E+000	-6.4792305E-002	11	1.4003386E-003	1.0185104E+003
2	0	0	1	8.400819787777436E+001	-1.1949371E+000	-1.1952322E+000	-1.177288377324061E+000	-6.5027513E-002	11	1.4071329E-003	1.0152416E+003
2	0	0	1	8.420809787272447E+001	-1.1959370E+000	-1.1962030E+000	-1.182065956000989E+000	-6.5263554E-002	11	1.4139909E-003	1.0119596E+003
2	0	0	1	8.440819786766951E+001	-1.1969373E+000	-1.1972253E+000	-1.186995637160841E+000	-6.5500811E-002	11	1.4211013E-003	1.0086182E+003
2	0	0	1	8.460799786262214E+001	-1.1979369E+000	-1.1982065E+000	-1.192001900237742E+000	-6.5738700E-002	11	1.4282644E-003	1.0052052E+003
2	0	0	0	8.480799785756972E+001	-1.1989369E+000	-1.1992128E+000	-1.197128094200579E+000	-6.5977842E-002	11	1.4356113E-003	1.0017414E+003
2	0	0	0	8.500799785251729E+001	-1.1999370E+000	-1.2002347E+000	-1.202465313319919E+000	-6.6218033E-002	11	1.4432406E-003	9.9814490E+002
2	0	0	0	8.520799784746487E+001	-1.2009369E+000	-1.2012151E+000	-1.207753978796354E+000	-6.6459283E-002	11	1.4507724E-003	9.9458594E+002
2	0	0	0	8.540799784241244E+001	-1.2019368E+000	-1.2021959E+000	-1.213174182566856E+000	-6.6701613E-002	11	1.4584730E-003	9.9095074E+002
2	0	0	0	8.560799783736002E+001	-1.2029369E+000	-1.2032156E+000	-1.218719621575410E+000	-6.6945024E-002	11	1.4663824E-003	9.8727844E+002
2	0	0	0	8.580799783230759E+001	-1.2039368E+000	-1.2042482E+000	-1.224468436066793E+000	-6.7189582E-002	11	1.4745638E-003	9.8348651E+002
2	0	0	0	8.600799782725517E+001	-1.2049369E+000	-1.2052392E+000	-1.230432646961505E+000	-6.7435302E-002	11	1.4829657E-003	9.7952472E+002
2	0	0	0	8.620799782220274E+001	-1.2059368E+000	-1.2062538E+000	-1.236507263009237E+000	-6.7682236E-002	11	1.4915415E-003	9.7553308E+002
2	0	0	0	8.640799781715032E+001	-1.2069368E+000	-1.2072397E+000	-1.242711902957182E+000	-6.7930393E-002	11	1.5002512E-003	9.7145587E+002
2	0	0	0	8.660799781209789E+001	-1.2079369E+000	-1.2081726E+000	-1.248999320925165E+000	-6.8179794E-002	11	1.5090067E-003	9.6731244E+002
2	0	0	0	8.680799780704547E+001	-1.2089368E+000	-1.2092189E+000	-1.255507212647505E+000	-6.8430476E-002	11	1.5181830E-003	9.6313177E+002
2	0	0	0	8.700799780199304E+001	-1.2099366E+000	-1.2102333E+000	-1.262372489553999E+000	-6.8682499E-002	11	1.5277653E-003	9.5869751E+002
2	0	0	0	8.720799779694062E+001	-1.2109367E+000	-1.2112139E+000	-1.269205340334216E+000	-6.8935893E-002	11	1.5372792E-003	9.5430890E+002
2	0	0	0	8.740799779188819E+001	-1.2119366E+000	-1.2122306E+000	-1.276209860043322E+000	-6.9190674E-002	11	1.5470606E-003	9.4986774E+002
2	0	0	0	8.760799778683577E+001	-1.2129366E+000	-1.2132355E+000	-1.283461488943860E+000	-6.9446877E-002	11	1.5571411E-003	9.4528394E+002
2	0	0	0	8.780799778178334E+001	-1.2139366E+000	-1.2142195E+000	-1.290822826570864E+000	-6.9704548E-002	11	1.5673422E-003	9.4065540E+002
2	0	0	0	8.800799777673092E+001	-1.2149366E+000	-1.2151935E+000	-1.298529540228738E+000	-6.9963723E-002	11	1.5779646E-003	9.3582275E+002
2	0	0	0	8.820799777167849E+001	-1.2159367E+000	-1.2162122E+000	-1.306411767222171E+000	-7.0224464E-002	11	1.5888739E-003	9.3095624E+002
2	0	0	0	8.840799776662607E+001	-1.2169365E+000	-1.2172406E+000	-1.314431938699656E+000	-7.0486799E-002	11	1.5999799E-003	9.2605829E+002
2	0	0	0	8.860799776157364E+001	-1.2179365E+000	-1.2182041E+000	-1.322707760943913E+000	-7.0750758E-002	11	1.6113281E-003	9.2099268E+002
2	0	0	0	8.880799775652122E+001	-1.2189366E+000	-1.2192187E+000	-1.331210717770041E+000	-7.1016401E-002	11	1.6230370E-003	9.1587207E+002
2	0	0	0	8.900799775146879E+001	-1.2199366E+000	-1.2202618E+000	-1.339869600406034E+000	-7.1283750E-002	11	1.6349917E-003	9.1073175E+002
2	0	0	0	8.920799774641637E+001	-1.2209365E+000	-1.2212412E+000	-1.348910002979766E+000	-7.1552880E-002	11	1.6473446E-003	9.0535413E+002
2	0	0	0	8.940799774136394E+001	-1.2219365E+000	-1.2222377E+000	-1.358223588997820E+000	-7.1823843E-002	11	1.6600721E-003	8.9987958E+002
2	0	0	0	8.960799773631152E+001	-1.2229364E+000	-1.2232289E+000	-1.367787599369306E+000	-7.2096691E-002	11	1.6731174E-003	8.9431207E+002
2	0	0	0	8.980799773125909E+001	-1.2239363E+000	-1.2242573E+000	-1.377549617299959E+000	-7.2371475E-002	11	1.6864752E-003	8.8872107E+002
2	0	0	0	9.000799772620667E+001	-1.2249364E+000	-1.2252399E+000	-1.387615901103363E+000	-7.2648250E-002	11	1.7001623E-003	8.8298199E+002
2	0	0	0	9.020799772115424E+001	-1.2259364E+000	-1.2262248E+000	-1.397999311284144E+000	-7.2927073E-002	11	1.7142614E-003	8.7712830E+002
2	0	0	0	9.040799771610182E+001	-1.2269363E+000	-1.2271926E+000	-1.408488464083462E+000	-7.3207982E-002	11	1.7284866E-003	8.7128339E+002
2	0	0	0	9.060799771104939E+001	-1.2279364E+000	-1.2282252E+000	-1.419167962651738E+000	-7.3491015E-002	11	1.7430579E-003	8.6545447E+002
2	0	0	0	9.080799770599697E+001	-1.2289363E+000	-1.2291824E+000	-1.430528868065802E+000	-7.3776260E-002	11	1.7583809E-003	8.5925031E+002
2	0	0	0	9.100799770094454E+001	-1.2299361E+000	-1.2302277E+000	-1.442224376655422E+000	-7.4063808E-002	11	1.7742644E-003	8.5300714E+002
2	0	0	0	9.120799769589212E+001	-1.2309362E+000	-1.2312665E+000	-1.454244313875627E+000	-7.4353725E-002	11	1.7905623E-003	8.4667102E+002
2	0	0	0	9.140799769083969E+001	-1.2319363E+000	-1.2322216E+000	-1.466440732212838E+000	-7.4646056E-002	11	1.8069800E-003	8.4028052E+002
2	0	0	0	9.160799768578727E+001	-1.2329363E+000	-1.2332520E+000	-1.479005392902703E+000	-7.4940868E-002	11	1.8239864E-003	8.3383881E+002
2	0	0	0	9.180799768073484E+001	-1.2339362E+000	-1.2342634E+000	-1.491890207186447E+000	-7.5238235E-002	11	1.8413855E-003	8.2731519E+002
2	0	0	0	9.200799767568242E+001	-1.2349361E+000	-1.2352599E+000	-1.505145954428542E+000	-7.5538211E-002	11	1.8592464E-003	8.2069110E+002
2	0	0	0	9.220799767062999E+001	-1.2359362E+000	-1.2362596E+000	-1.518758474403565E+000	-7.5840876E-002	11	1.8775797E-003	8.1399353E+002
2	0	0	0	9.240799766557757E+001	-1.2369361E+000	-1.2372307E+000	-1.532768361481613E+000	-7.6146312E-002	11	1.8963880E-003	8.0718695E+002
2	0	0	0	9.260799766052514E+001	-1.2379361E+000	-1.2382134E+000	-1.547142007977378E+000	-7.6454587E-002	11	1.9156920E-003	8.0032306E+002
2	0	0	1	9.280799765547272E+001	-1.2389362E+000	-1.2392406E+000	-1.562028894926856E+000	-7.6765805E-002	11	1.9357296E-003	7.9335321E+002
2	0	0	1	9.300799765042029E+001	-1.2399361E+000	-1.2402468E+000	-1.577276418230255E+000	-7.7080026E-002	11	1.9562121E-003	7.8632178E+002
2	0	0	1	9.320779764537292E+001	-1.2409358E+000	-1.2412353E+000	-1.592979752113997E+000	-7.7397026E-002	11	1.9772626E-003	7.7919086E+002
2	0	0	1	9.340789764031797E+001	-1.2419360E+000	-1.2422299E+000	-1.609201429256604E+000	-7.7717699E-002	11	1.9989982E-003	7.7195428E+002
2	0	0	1	9.360779763526807E+001	-1.2429359E+000	-1.2432349E+000	-1.625705694014728E+000	-7.8041323E-002	11	2.0211339E-003	7.6473553E+002
2	0	0	1	9.380779763021565E+001	-1.2439359E+000	-1.2442430E+000	-1.642752618033914E+000	-7.8368470E-002	11	2.0439834E-003	7.5741351E+002
2	0	0	1	9.400779762516322E+001	-1.2449359E+000	-1.2452639E+000	-1.660216879750067E+000	-7.8699075E-002	11	2.0674083E-003	7.5006097E+002
2	0	0	1	9.420779762011080E+001	-1.2459359E+000	-1.2462382E+000	-1.677934209184713E+000	-7.9033196E-002	11	2.0911058E-003	7.4272174E+002
2	0	0	1	9.440779761505837E+001	-1.2469360E+000	-1.2472284E+000	-1.696394567857253E+000	-7.9370946E-002	11	2.1157914E-003	7.3522302E+002
2	0	0	1	9.460779761000595E+001	-1.2479359E+000	-1.2482172E+000	-1.715466458071656E+000	-7.9712451E-002	11	2.1412747E-003	7.2762555E+002
2	0	0	1	9.480779760495352E+001	-1.2489359E+000	-1.2492372E+000	-1.734946904370304E+000	-8.0057815E-002	11	2.1673602E-003	7.2004346E+002
2	0	0	1	9.500779759990110E+001	-1.2499359E+000	-1.2502189E+000	-1.755158800133366E+000	-8.0407158E-002	11	2.1943327E-003	7.1231097E+002
2	0	0	1	9.520779759484867E+001	-1.2509359E+000	-1.2512121E+000	-1.775692097183798E+000	-8.0760568E-002	11	2.2217676E-003	7.0463348E+002
2	0	0	1	9.540779758979625E+001	-1.2519357E+000	-1.2522140E+000	-1.796893060815567E+000	-8.1118159E-002	11	2.2500947E-003	6.9687726E+002
2	0	0	1	9.560779758474382E+001	-1.2529358E+000	-1.2532009E+000	-1.818518289633075E+000	-8.1480026E-002	11	2.2789687E-003	6.8913293E+002
2	0	0	1	9.580779757969140E+001	-1.2539357E+000	-1.2542503E+000	-1.840865775740070E+000	-8.1846312E-002	11	2.3089065E-003	6.8133716E+002
2	0	0	1	9.600779757463897E+001	-1.2549357E+000	-1.2552564E+000	-1.864369398747437E+000	-8.2217187E-002	11	2.3402616E-003	6.7328741E+002
2	0	0	1	9.620779756958655E+001	-1.2559357E+000	-1.2562358E+000	-1.887893741566053E+000	-8.2592763E-002	11	2.3716397E-003	6.6541663E+002
2	0	0	1	9.640779756453412E+001	-1.2569357E+000	-1.2572302E+000	-1.912003595610059E+000	-8.2973108E-002	11	2.4038285E-003	6.5754590E+002
2	0	0	1	9.660779755948170E+001	-1.2579356E+000	-1.2582245E+000	-1.936884021525888E+000	-8.3358347E-002	11	2.4370349E-003	6.4961273E+002
2	0	0	1	9.680779755442927E+001	-1.2589357E+000	-1.2592454E+000	-1.962374922775086E+000	-8.3748646E-002	11	2.4711115E-003	6.4169458E+002
2	0	0	1	9.700779754937685E+001	-1.2599356E+000	-1.2602302E+000	-1.988601707564065E+000	-8.4144115E-002	11	2.5060959E-003	6.3372681E+002
2	0	0	1	9.720779754432442E+001	-1.2609357E+000	-1.2612586E+000	-2.015443147479012E+000	-8.4544897E-002	11	2.5419949E-003	6.2579718E+002
2	0	0	1	9.740779753927200E+001	-1.2619357E+000	-1.2622201E+000	-2.043036885086504E+000	-8.4951133E-002	11	2.5787624E-003	6.1781561E+002
2	0	0	1	9.760779753421957E+001	-1.2629356E+000	-1.2632579E+000	-2.071227055102106E+000	-8.5362941E-002	11	2.6164940E-003	6.0990796E+002
2	0	0	1	9.780779752916715E+001	-1.2639354E+000	-1.2642268E+000	-2.100085446556129E+000	-8.5780457E-002	11	2.6549844E-003	6.0198828E+002
2	0	0	1	9.800779752411472E+001	-1.2649355E+000	-1.2652191E+000	-2.129816290472640E+000	-8.6203851E-002	11	2.6946843E-003	5.9405078E+002
2	0	0	1	9.820779751906230E+001	-1.2659354E+000	-1.2662071E+000	-2.160350609832612E+000	-8.6633272E-002	11	2.7354513E-003	5.8611188E+002
2	0	0	1	9.840779751400987E+001	-1.2669355E+000	-1.2671707E+000	-2.191539789273351E+000	-8.7068886E-002	11	2.7770549E-003	5.7821021E+002
2	0	0	1	9.860779750895745E+001	-1.2679355E+000	-1.2681587E+000	-2.223796127452736E+000	-8.7510839E-002	11	2.8201262E-003	5.7026752E+002
2	0	0	1	9.880779750390502E+001	-1.2689354E+000	-1.2692367E+000	-2.256789863329221E+000	-8.7959319E-002	11	2.8644004E-003	5.6240802E+002
2	0	0	1	9.900779749885260E+001	-1.2699355E+000	-1.2701939E+000	-2.290447641172499E+000	-8.8414475E-002	11	2.9093127E-003	5.5456146E+002
2	0	0	1	9.920779749380017E+001	-1.2709353E+000	-1.2712319E+000	-2.325006527070151E+000	-8.8876456E-002	11	2.9556225E-003	5.4676489E+002
2	0	0	1	9.940779748874775E+001	-1.2719353E+000	-1.2721967E+000	-2.360282131688255E+000	-8.9345440E-002	11	3.0027430E-003	5.3900195E+002
2	0	0	1	9.960779748369532E+001	-1.2729354E+000	-1.2732131E+000	-2.396535811324917E+000	-8.9821570E-002	11	3.0513010E-003	5.3127234E+002
2	0	0	1	9.980779747864290E+001	-1.2739354E+000	-1.2742224E+000	-2.433870263194958E+000	-9.0305060E-002	11	3.1012918E-003	5.2353754E+002
2	0	0	1	1.000077974735905E+002	-1.2749352E+000	-1.2752231E+000	-2.471628837540848E+000	-9.0796076E-002	11	3.1518782E-003	5.1594446E+002
2	0	0	1	1.002077974685380E+002	-1.2759353E+000	-1.2762587E+000	-2.510735702588981E+000	-9.1294780E-002	11	3.2043483E-003	5.0832062E+002
2	0	0	1	1.004077974634856E+002	-1.2769352E+000	-1.2772394E+000	-2.550561239457195E+000	-9.1801390E-002	11	3.2576774E-003	5.0076801E+002
2	0	0	1	1.006077974584332E+002	-1.2779351E+000	-1.2781893E+000	-2.591155110640862E+000	-9.2316046E-002	11	3.3119868E-003	4.9328937E+002
2	0	0	1	1.008077974533808E+002	-1.2789352E+000	-1.2792122E+000	-2.633203350024438E+000	-9.2838980E-002	11	3.3684259E-003	4.8580078E+002
2	0	0	1	1.010077974483283E+002	-1.2799352E+000	-1.2802383E+000	-2.675985806230922E+000	-9.3370393E-002	11	3.4258994E-003	4.7841745E+002
2	0	0	1	1.012077974432759E+002	-1.2809352E+000	-1.2812275E+000	-2.719522023839609E+000	-9.3910456E-002	11	3.4843264E-003	4.7112231E+002
2	0	0	1	1.014077974382235E+002	-1.2819351E+000	-1.2822027E+000	-2.764477920606559E+000	-9.4459370E-002	11	3.5446212E-003	4.6381369E+002
2	0	0	1	1.016077974331711E+002	-1.2829350E+000	-1.2832087E+000	-2.810015998138731E+000	-9.5017351E-002	11	3.6058370E-003	4.5665530E+002
2	0	0	1	1.018076974281212E+002	-1.2839348E+000	-1.2842050E+000	-2.856842459154286E+000	-9.5584288E-002	11	3.6687714E-003	4.4951901E+002
2	0	0	1	1.020076974230687E+002	-1.2849348E+000	-1.2851685E+000	-2.904554654153493E+000	-9.6160963E-002	11	3.7328422E-003	4.4246664E+002
2	0	0	1	1.022075974180189E+002	-1.2859347E+000	-1.2861831E+000	-2.953369487909008E+000	-9.6747026E-002	11	3.7985740E-003	4.3549686E+002
2	0	0	1	1.024076974129639E+002	-1.2869353E+000	-1.2872205E+000	-3.003820503601474E+000	-9.7343601E-002	11	3.8665792E-003	4.2852777E+002
2	0	0	0	1.026075974079140E+002	-1.2879350E+000	-1.2882144E+000	-3.054874452130861E+000	-9.7949743E-002	11	3.9353333E-003	4.2169147E+002
2	0	0	0	1.028075974028616E+002	-1.2889349E+000	-1.2891982E+000	-3.107086055031431E+000	-9.8566525E-002	11	4.0056496E-003	4.1492194E+002
2	0	0	0	1.030075973978092E+002	-1.2899350E+000	-1.2902011E+000	-3.160842846783350E+000	-9.9193908E-002	11	4.0781228E-003	4.0818262E+002
2	0	0	0	1.032075973927567E+002	-1.2909349E+000	-1.2912092E+000	-3.215178831972509E+000	-9.9832110E-002	11	4.1514686E-003	4.0159796E+002
2	0	0	0	1.034075973877043E+002	-1.2919350E+000	-1.2921920E+000	-3.270891525442636E+000	-1.0048132E-001	11	4.2266198E-003	3.9505804E+002
2	0	0	0	1.036075973826519E+002	-1.2929348E+000	-1.2932520E+000	-3.328123173881281E+000	-1.0114186E-001	11	4.3041017E-003	3.8858298E+002
2	0	0	0	1.038075973775995E+002	-1.2939348E+000	-1.2941999E+000	-3.386008590392223E+000	-1.0181390E-001	11	4.3821721E-003	3.8221991E+002
2	0	0	0	1.040075973725470E+002	-1.2949347E+000	-1.2951994E+000	-3.445614914944088E+000	-1.0249771E-001	11	4.4627585E-003	3.7589789E+002
2	0	0	0	1.042075973674946E+002	-1.2959348E+000	-1.2961599E+000	-3.506480017757202E+000	-1.0319357E-001	11	4.5449585E-003	3.6964700E+002
2	0	0	0	1.044075973624422E+002	-1.2969347E+000	-1.2972178E+000	-3.568312443100137E+000	-1.0390171E-001	11	4.6288786E-003	3.6353818E+002
2	0	0	0	1.046075973573898E+002	-1.2979348E+000	-1.2982028E+000	-3.631488592716572E+000	-1.0462235E-001	11	4.7144084E-003	3.5748502E+002
2	0	0	0	1.048075973523373E+002	-1.2989347E+000	-1.2991704E+000	-3.695740853780507E+000	-1.0535577E-001	11	4.8013972E-003	3.5153177E+002
2	0	0	0	1.050075973472849E+002	-1.2999347E+000	-1.3002168E+000	-3.761911043335530E+000	-1.0610224E-001	11	4.8913001E-003	3.4562668E+002
2	0	0	0	1.052075973422325E+002	-1.3009347E+000	-1.3012176E+000	-3.829078355005805E+000	-1.0686206E-001	11	4.9824640E-003	3.3982526E+002
2	0	0	0	1.054075973371801E+002	-1.3019346E+000	-1.3021939E+000	-3.897353484010196E+000	-1.0763544E-001	11	5.0751097E-003	3.3412259E+002
2	0	0	0	1.056075973321276E+002	-1.3029346E+000	-1.3032072E+000	-3.967348956129172E+000	-1.0842266E-001	11	5.1702778E-003	3.2848312E+002
2	0	0	0	1.058075973270752E+002	-1.3039347E+000	-1.3041773E+000	-4.038396734397963E+000	-1.0922399E-001	11	5.2667852E-003	3.2294431E+002
2	0	0	0	1.060075973220228E+002	-1.3049345E+000	-1.3052087E+000	-4.110625729032390E+000	-1.1003964E-001	11	5.3652246E-003	3.1752069E+002
2	0	0	0	1.062075973169704E+002	-1.3059345E+000	-1.3061956E+000	-4.185844540933900E+000	-1.1087003E-001	11	5.4675317E-003	3.1205069E+002
2	0	0	0	1.064075973119179E+002	-1.3069345E+000	-1.3072016E+000	-4.261253858707390E+000	-1.1171553E-001	11	5.5703181E-003	3.0676456E+002
2	0	0	0	1.066075973068655E+002	-1.3079345E+000	-1.3082342E+000	-4.337812537069759E+000	-1.1257625E-001	11	5.6748749E-003	3.0158847E+002
2	0	0	0	1.068075973018131E+002	-1.3089346E+000	-1.3092276E+000	-4.415818712034177E+000	-1.1345243E-001	11	5.7813115E-003	2.9648581E+002
2	0	0	0	1.070075972967607E+002	-1.3099345E+000	-1.3102018E+000	-4.495411746761391E+000	-1.1434441E-001	11	5.8898963E-003	2.9145313E+002
2	0	0	0	1.072075972917082E+002	-1.3109345E+000	-1.3112174E+000	-4.576659294854764E+000	-1.1525248E-001	11	6.0009956E-003	2.8650101E+002
2	0	0	0	1.074075972866558E+002	-1.3119344E+000	-1.3122042E+000	-4.659393684359912E+000	-1.1617693E-001	11	6.1140764E-003	2.8162555E+002
2	0	0	0	1.076075972816034E+002	-1.3129344E+000	-1.3131891E+000	-4.743643135271640E+000	-1.1711812E-001	11	6.2293005E-003	2.7683136E+002
2	0	0	0	1.078075972765510E+002	-1.3139343E+000	-1.3142352E+000	-4.829081460833535E+000	-1.1807628E-001	11	6.3465489E-003	2.7215015E+002
2	0	0	0	1.080075972714985E+002	-1.3149344E+000	-1.3152266E+000	-4.915787198375931E+000	-1.1905164E-001	11	6.4653740E-003	2.6755157E+002
2	0	0	0	1.082075972664461E+002	-1.3159344E+000	-1.3161922E+000	-5.004519502592185E+000	-1.2004454E-001	11	6.5869093E-003	2.6300070E+002
2	0	0	0	1.084075972613937E+002	-1.3169343E+000	-1.3171983E+000	-5.094598384502255E+000	-1.2105533E-001	11	6.7105964E-003	2.5854800E+002
2	0	0	0	1.086075972563413E+002	-1.3179343E+000	-1.3181884E+000	-5.185354618731552E+000	-1.2208427E-001	11	6.8352744E-003	2.5421375E+002
2	0	0	0	1.088075972512888E+002	-1.3189342E+000	-1.3191997E+000	-5.279432760919042E+000	-1.2313172E-001	11	6.9646258E-003	2.4987527E+002
2	0	0	0	1.090075972462364E+002	-1.3199342E+000	-1.3202131E+000	-5.374261442867549E+000	-1.2419803E-001	11	7.0951702E-003	2.4565479E+002
2	0	0	0	1.092075972411840E+002	-1.3209343E+000	-1.3211949E+000	-5.470505852108644E+000	-1.2528348E-001	11	7.2276043E-003	2.4151237E+002
2	0	0	0	1.094075972361316E+002	-1.3219343E+000	-1.3222009E+000	-5.568898017207800E+000	-1.2638840E-001	11	7.3632021E-003	2.3742595E+002
2	0	0	0	1.096075972310791E+002	-1.3229343E+000	-1.3231655E+000	-5.667897466190013E+000	-1.2751308E-001	11	7.4995668E-003	2.3344910E+002
2	0	0	0	1.098075972260267E+002	-1.3239342E+000	-1.3241714E+000	-5.769171275789766E+000	-1.2865780E-001	11	7.6393718E-003	2.2952542E+002
2	0	0	0	1.100075972209743E+002	-1.3249341E+000	-1.3251966E+000	-5.872525953144958E+000	-1.2982297E-001	11	7.7822516E-003	2.2566042E+002
2	0	0	0	1.102075972159219E+002	-1.3259341E+000	-1.3261846E+000	-5.976992372043298E+000	-1.3100894E-001	11	7.9265954E-003	2.2188161E+002
2	0	0	0	1.104075972108694E+002	-1.3269341E+000	-1.3272097E+000	-6.083708815935537E+000	-1.3221604E-001	11	8.0743572E-003	2.1815799E+002
2	0	0	1	1.106074972058195E+002	-1.3279337E+000	-1.3282154E+000	-6.190523488229672E+000	-1.3344388E-001	11	8.2223481E-003	2.1455623E+002
2	0	0	1	1.108074972007671E+002	-1.3289338E+000	-1.3291571E+000	-6.300229740006131E+000	-1.3469410E-001	11	8.3739953E-003	2.1096962E+002
2	0	0	1	1.110074971957147E+002	-1.3299340E+000	-1.3301440E+000	-6.411938649426956E+000	-1.3596639E-001	11	8.5288016E-003	2.0744803E+002
2	0	0	1	1.112074971906623E+002	-1.3309343E+000	-1.3311526E+000	-6.525101380716649E+000	-1.3726123E-001	11	8.6859055E-003	2.0400488E+002
2	0	0	1	1.114074971856098E+002	-1.3319343E+000	-1.3322488E+000	-6.644154221660202E+000	-1.3857931E-001	11	8.8516669E-003	2.0051443E+002
2	0	0	1	1.116073971805599E+002	-1.3329340E+000	-1.3332386E+000	-6.760339657398035E+000	-1.3992023E-001	11	9.0131462E-003	1.9721474E+002
2	0	0	1	1.118073971755075E+002	-1.3339341E+000	-1.3341979E+000	-6.878887422163217E+000	-1.4128533E-001	11	9.1777965E-003	1.9395547E+002
2	0	0	1	1.120073971704551E+002	-1.3349339E+000	-1.3351965E+000	-6.999450380975148E+000	-1.4267434E-001	11	9.3456414E-003	1.9075734E+002
2	0	0	1	1.122073971654027E+002	-1.3359339E+000	-1.3362586E+000	-7.121307565646916E+000	-1.4408763E-001	11	9.5159085E-003	1.8764232E+002
2	0	0	1	1.124073971603502E+002	-1.3369339E+000	-1.3372614E+000	-7.245343375638470E+000	-1.4552550E-001	11	9.6889185E-003	1.8456841E+002
2	0	0	1	1.126073971552978E+002	-1.3379338E+000	-1.3382443E+000	-7.371925066523033E+000	-1.4698844E-001	11	9.8654367E-003	1.8153255E+002
2	0	0	1	1.128073971502454E+002	-1.3389338E+000	-1.3392036E+000	-7.499363252905766E+000	-1.4847682E-001	11	1.0043174E-002	1.7857564E+002
2	0	0	1	1.130073971451930E+002	-1.3399339E+000	-1.3402213E+000	-7.629241334540481E+000	-1.4999095E-001	11	1.0224871E-002	1.7566901E+002
2	0	0	1	1.132073971401405E+002	-1.3409338E+000	-1.3412358E+000	-7.761012624518408E+000	-1.5153123E-001	11	1.0409348E-002	1.7281711E+002
2	0	0	1	1.134073971350881E+002	-1.3419337E+000	-1.3422248E+000	-7.893674585351562E+000	-1.5309800E-001	11	1.0595086E-002	1.7003802E+002
2	0	0	1	1.136073971300357E+002	-1.3429337E+000	-1.3432404E+000	-8.029436852453486E+000	-1.5469165E-001	11	1.0785464E-002	1.6728949E+002
2	0	0	1	1.138073971249833E+002	-1.3439337E+000	-1.3441901E+000	-8.166570794555383E+000	-1.5631257E-001	11	1.0977424E-002	1.6459663E+002
2	0	0	1	1.140073971199308E+002	-1.3449337E+000	-1.3452015E+000	-8.305817428292016E+000	-1.5796116E-001	11	1.1172998E-002	1.6195895E+002
2	0	0	1	1.142073971148784E+002	-1.3459336E+000	-1.3462361E+000	-8.447508641584108E+000	-1.5963791E-001	11	1.1372341E-002	1.5936487E+002
2	0	0	1	1.144073971098260E+002	-1.3469336E+000	-1.3472158E+000	-8.589007333765757E+000	-1.6134299E-001	11	1.1571246E-002	1.5685349E+002
2	0	0	1	1.146073971047736E+002	-1.3479335E+000	-1.3482058E+000	-8.734324169402186E+000	-1.6307676E-001	11	1.1775667E-002	1.5435719E+002
2	0	0	1	1.148073970997211E+002	-1.3489336E+000	-1.3492310E+000	-8.880955627378157E+000	-1.6483977E-001	11	1.1982461E-002	1.5192407E+002
2	0	0	1	1.150073970946687E+002	-1.3499336E+000	-1.3501872E+000	-9.029116842143935E+000	-1.6663222E-001	11	1.2190998E-002	1.4953702E+002
2	0	0	1	1.152073970896163E+002	-1.3509336E+000	-1.3512197E+000	-9.180992386711438E+000	-1.6845469E-001	11	1.2405537E-002	1.4717577E+002
2	0	0	1	1.154073970845639E+002	-1.3519336E+000	-1.3522396E+000	-9.331395782107933E+000	-1.7030746E-001	11	1.2618283E-002	1.4491290E+002
2	0	0	1	1.156073970795114E+002	-1.3529335E+000	-1.3532116E+000	-9.485799839031674E+000	-1.7219071E-001	11	1.2836295E-002	1.4265657E+002
2	0	0	1	1.158073970744590E+002	-1.3539336E+000	-1.3542197E+000	-9.642893486012184E+000	-1.7410509E-001	11	1.3058596E-002	1.4043707E+002
2	0	0	1	1.160073970694066E+002	-1.3549334E+000	-1.3552098E+000	-9.799925031305179E+000	-1.7605092E-001	11	1.3280955E-002	1.3828778E+002
2	0	0	1	1.162073970643542E+002	-1.3559334E+000	-1.3562372E+000	-9.959792802460868E+000	-1.7802848E-001	11	1.3507841E-002	1.3617122E+002
2	0	0	1	1.164073970593017E+002	-1.3569335E+000	-1.3572146E+000	-1.012321391025908E+001	-1.8003838E-001	11	1.3739374E-002	1.3406953E+002
2	0	0	1	1.166073970542493E+002	-1.3579334E+000	-1.3582129E+000	-1.028704669443121E+001	-1.8208106E-001	11	1.3972000E-002	1.3203137E+002
2	0	0	1	1.168073970491969E+002	-1.3589333E+000	-1.3592383E+000	-1.045317475555164E+001	-1.8415673E-001	11	1.4208355E-002	1.3003114E+002
2	0	0	1	1.170073970441445E+002	-1.3599334E+000	-1.3602251E+000	-1.062045756644669E+001	-1.8626569E-001	11	1.4446213E-002	1.2807594E+002
2	0	0	1	1.172073970390920E+002	-1.3609333E+000	-1.3612194E+000	-1.078956789366242E+001	-1.8840836E-001	11	1.4686969E-002	1.2616070E+002
2	0	0	1	1.174173970337870E+002	-1.3619834E+000	-1.3622990E+000	-1.097267374749089E+001	-1.9069609E-001	11	1.4948062E-002	1.2415379E+002
2	0	0	1	1.176273970284819E+002	-1.3630333E+000	-1.3632909E+000	-1.115563537582511E+001	-1.9302072E-001	10	1.5208377E-002	1.2220647E+002
2	0	0	1	1.178273970234295E+002	-1.3640333E+000	-1.3643203E+000	-1.133134494563080E+001	-1.9527118E-001	10	1.5459584E-002	1.2040233E+002
2	0	0	1	1.180273970183771E+002	-1.3650331E+000	-1.3653337E+000	-1.150797233134162E+001	-1.9755681E-001	10	1.5712222E-002	1.1864242E+002
2	0	0	1	1.182273970133247E+002	-1.3660332E+000	-1.3663048E+000	-1.168645945745532E+001	-1.9987810E-001	10	1.5967265E-002	1.1691349E+002
2	0	0	1	1.184273970082722E+002	-1.3670331E+000	-1.3673691E+000	-1.186817141468563E+001	-2.0223539E-001	10	1.6228171E-002	1.1521312E+002
2	0	0	1	1.186273970032198E+002	-1.3680332E+000	-1.3683454E+000	-1.205108949994829E+001	-2.0462911E-001	10	1.6490053E-002	1.1354536E+002
2	0	0	1	1.188273969981674E+002	-1.3690332E+000	-1.3693260E+000	-1.223404205723953E+001	-2.0705944E-001	10	1.6752392E-002	1.1192752E+002
2	0	0	1	1.190273969931150E+002	-1.3700331E+000	-1.3703775E+000	-1.242278448882556E+001	-2.0952699E-001	10	1.7023904E-002	1.1031162E+002
2	0	0	1	1.192273969880625E+002	-1.3710331E+000	-1.3713402E+000	-1.261074106439173E+001	-2.1203215E-001	10	1.7293615E-002	1.0874382E+002
2	0	0	1	1.194273969830101E+002	-1.3720331E+000	-1.3723357E+000	-1.279932066601106E+001	-2.1457502E-001	10	1.7564964E-002	1.0721941E+002
2	0	0	1	1.196273969779577E+002	-1.3730334E+000	-1.3733163E+000	-1.299125223902229E+001	-2.1715593E-001	10	1.7841099E-002	1.0571085E+002
2	0	0	1	1.198273969729053E+002	-1.3740336E+000	-1.3743522E+000	-1.318339689491853E+001	-2.1977533E-001	10	1.8118631E-002	1.0424872E+002
2	0	0	1	1.200271969678579E+002	-1.3750329E+000	-1.3753471E+000	-1.338029010767257E+001	-2.2243103E-001	10	1.8402543E-002	1.0278904E+002
2	0	0	1	1.202271969628055E+002	-1.3760328E+000	-1.3763169E+000	-1.357757361122152E+001	-2.2512873E-001	10	1.8687043E-002	1.0136693E+002
2	0	0	0	1.204271969577530E+002	-1.3770330E+000	-1.3773105E+000	-1.377786706823881E+001	-2.2786629E-001	10	1.8976402E-002	9.9965439E+001
2	0	0	0	1.206271969527006E+002	-1.3780329E+000	-1.3783505E+000	-1.397978942545629E+001	-2.3064405E-001	10	1.9269049E-002	9.8595940E+001
2	0	0	0	1.208271969476482E+002	-1.3790329E+000	-1.3793502E+000	-1.417987849679938E+001	-2.3346204E-001	10	1.9559018E-002	9.7275177E+001
2	0	0	0	1.210271969425958E+002	-1.3800329E+000	-1.3803319E+000	-1.438584639439506E+001	-2.3632067E-001	10	1.9857243E-002	9.5950691E+001
2	0	0	0	1.212271969375433E+002	-1.3810329E+000	-1.3812827E+000	-1.459323974328784E+001	-2.3922059E-001	10	2.0157389E-002	9.4652229E+001
2	0	0	0	1.214271969324909E+002	-1.3820329E+000	-1.3823407E+000	-1.480104319457297E+001	-2.4216208E-001	10	2.0460084E-002	9.3394814E+001
2	0	0	0	1.216271969274385E+002	-1.3830328E+000	-1.3833287E+000	-1.501280055010946E+001	-2.4514551E-001	10	2.0767637E-002	9.2143280E+001
2	0	0	0	1.218271969223861E+002	-1.3840328E+000	-1.3842700E+000	-1.522387726520464E+001	-2.4817125E-001	10	2.1073956E-002	9.0927559E+001
2	0	0	0	1.220271969173336E+002	-1.3850328E+000	-1.3852911E+000	-1.543615903659741E+001	-2.5123951E-001	10	2.1383574E-002	8.9743248E+001
2	0	0	0	1.222271969122812E+002	-1.3860328E+000	-1.3863106E+000	-1.565266329469053E+001	-2.5435090E-001	10	2.1699453E-002	8.8567070E+001
2	0	0	0	1.224271969072288E+002	-1.3870329E+000	-1.3873104E+000	-1.586889463217080E+001	-2.5750548E-001	10	2.2015082E-002	8.7423256E+001
2	0	0	0	1.226271969021764E+002	-1.3880327E+000	-1.3882941E+000	-1.608606534223168E+001	-2.6070324E-001	10	2.2332190E-002	8.6304146E+001
2	0	0	0	1.228271968971239E+002	-1.3890327E+000	-1.3893214E+000	-1.630954979377000E+001	-2.6394528E-001	10	2.2659207E-002	8.5184540E+001
2	0	0	0	1.230271968920715E+002	-1.3900328E+000	-1.3903019E+000	-1.653191760445938E+001	-2.6723158E-001	10	2.2984358E-002	8.4098045E+001
2	0	0	0	1.232271968870191E+002	-1.3910326E+000	-1.3913176E+000	-1.675809891396906E+001	-2.7056268E-001	10	2.3315838E-002	8.3023598E+001
2	0	0	0	1.234271968819667E+002	-1.3920326E+000	-1.3923161E+000	-1.697857983609714E+001	-2.7393857E-001	10	2.3639550E-002	8.2004272E+001
2	0	0	0	1.236271968769142E+002	-1.3930327E+000	-1.3933285E+000	-1.720469653728051E+001	-2.7735913E-001	10	2.3971794E-002	8.0985359E+001
2	0	0	0	1.238271968718618E+002	-1.3940326E+000	-1.3943175E+000	-1.743749957154935E+001	-2.8082556E-001	10	2.4313411E-002	7.9960861E+001
2	0	0	0	1.240271968668094E+002	-1.3950326E+000	-1.3952972E+000	-1.766517683640623E+001	-2.8433794E-001	10	2.4648171E-002	7.8985748E+001
2	0	0	0	1.242271968617570E+002	-1.3960325E+000	-1.3963253E+000	-1.789438451701552E+001	-2.8789619E-001	10	2.4986383E-002	7.8031479E+001
2	0	0	0	1.244271968567045E+002	-1.3970325E+000	-1.3973092E+000	-1.813124493284826E+001	-2.9150137E-001	10	2.5334954E-002	7.7066368E+001
2	0	0	0	1.246271968516521E+002	-1.3980325E+000	-1.3982855E+000	-1.836342620173820E+001	-2.9515365E-001	10	2.5677312E-002	7.6145134E+001
2	0	0	0	1.248271968465997E+002	-1.3990326E+000	-1.3993520E+000	-1.860300776490817E+001	-2.9885304E-001	10	2.6032155E-002	7.5221809E+001
2	0	0	0	1.250271968415473E+002	-1.4000324E+000	-1.4003452E+000	-1.884429787359542E+001	-3.0260047E-001	10	2.6388522E-002	7.4311348E+001
2	0	0	0	1.252271968364948E+002	-1.4010324E+000	-1.4013066E+000	-1.908474862007864E+001	-3.0639562E-001	10	2.6743585E-002	7.3425468E+001
2	0	0	0	1.254271968314424E+002	-1.4020324E+000	-1.4023203E+000	-1.932773032466841E+001	-3.1023911E-001	10	2.7103668E-002	7.2554832E+001
2	0	0	0	1.256271968263900E+002	-1.4030324E+000	-1.4033039E+000	-1.957276944954648E+001	-3.1413159E-001	10	2.7466543E-002	7.1696747E+001
2	0	0	0	1.258271968213376E+002	-1.4040323E+000	-1.4042740E+000	-1.981725653215321E+001	-3.1807315E-001	10	2.7828857E-002	7.0861168E+001
2	0	0	0	1.260271968162851E+002	-1.4050324E+000	-1.4053034E+000	-2.006634167573344E+001	-3.2206425E-001	10	2.8199296E-002	7.0032860E+001
2	0	0	0	1.262271968112327E+002	-1.4060323E+000	-1.4063199E+000	-2.031438471062660E+001	-3.2610497E-001	10	2.8568523E-002	6.9227783E+001
2	0	0	0	1.264271968061803E+002	-1.4070324E+000	-1.4072676E+000	-2.056715545997594E+001	-3.3019561E-001	10	2.8943490E-002	6.8423050E+001
2	0	0	0	1.266271968011279E+002	-1.4080322E+000	-1.4083234E+000	-2.082053057501378E+001	-3.3433676E-001	10	2.9322041E-002	6.7641090E+001
2	0	0	0	1.268271967960754E+002	-1.4090322E+000	-1.4093029E+000	-2.107600406508324E+001	-3.3852950E-001	10	2.9702475E-002	6.6867653E+001
2	0	0	0	1.270271967910230E+002	-1.4100323E+000	-1.4103460E+000	-2.133217942241635E+001	-3.4277347E-001	10	3.0085756E-002	6.6113548E+001
2	0	0	0	1.272271967859706E+002	-1.4110323E+000	-1.4113511E+000	-2.158993767867557E+001	-3.4706843E-001	10	3.0470982E-002	6.5370781E+001
2	0	0	0	1.274271967809182E+002	-1.4120321E+000	-1.4123188E+000	-2.185022516072198E+001	-3.5141498E-001	10	3.0859485E-002	6.4636353E+001
2	0	0	0	1.276271967758657E+002	-1.4130322E+000	-1.4133132E+000	-2.211591563824894E+001	-3.5581446E-001	10	3.1256713E-002	6.3904800E+001
2	0	0	0	1.278271967708133E+002	-1.4140321E+000	-1.4143140E+000	-2.237987688690629E+001	-3.6026695E-001	10	3.1652175E-002	6.3195793E+001
2	0	0	0	1.280271967657609E+002	-1.4150321E+000	-1.4153082E+000	-2.264930474447294E+001	-3.6477265E-001	10	3.2055747E-002	6.2487934E+001
2	0	0	1	1.282271967607085E+002	-1.4160323E+000	-1.4163346E+000	-2.291825251025389E+001	-3.6933216E-001	10	3.2459915E-002	6.1799416E+001
2	0	0	1	1.284271967556560E+002	-1.4170324E+000	-1.4172939E+000	-2.319190408585201E+001	-3.7394586E-001	10	3.2869745E-002	6.1111580E+001
2	0	0	1	1.286270967506061E+002	-1.4180322E+000	-1.4183158E+000	-2.346535563433241E+001	-3.7861189E-001	10	3.3281285E-002	6.0442970E+001
2	0	0	1	1.288270967455537E+002	-1.4190321E+000	-1.4192941E+000	-2.373618828075507E+001	-3.8333493E-001	10	3.3688631E-002	5.9794525E+001
2	0	0	1	1.290269967405038E+002	-1.4200318E+000	-1.4203277E+000	-2.401901646774469E+001	-3.8811111E-001	10	3.4114875E-002	5.9133465E+001
2	0	0	1	1.292269967354514E+002	-1.4210320E+000	-1.4212967E+000	-2.430436903211263E+001	-3.9294615E-001	10	3.4543719E-002	5.8479061E+001
2	0	0	1	1.294269967303990E+002	-1.4220320E+000	-1.4222817E+000	-2.458538523404229E+001	-3.9783773E-001	10	3.4967344E-002	5.7850700E+001
2	0	0	1	1.296269967253465E+002	-1.4230320E+000	-1.4232908E+000	-2.487375694648489E+001	-4.0278631E-001	10	3.5402592E-002	5.7220581E+001
2	0	0	1	1.298269967202941E+002	-1.4240320E+000	-1.4243021E+000	-2.516775741301427E+001	-4.0779328E-001	10	3.5846490E-002	5.6592331E+001
2	0	0	1	1.300269967152417E+002	-1.4250319E+000	-1.4252880E+000	-2.546634908733458E+001	-4.1285959E-001	10	3.6296882E-002	5.5967503E+001
2	0	0	1	1.302269967101893E+002	-1.4260318E+000	-1.4263259E+000	-2.576555845283328E+001	-4.1798583E-001	10	3.6750086E-002	5.5357849E+001
2	0	0	1	1.304269967051368E+002	-1.4270319E+000	-1.4272864E+000	-2.607053845945131E+001	-4.2317259E-001	10	3.7210125E-002	5.4747101E+001
2	0	0	1	1.306269967000844E+002	-1.4280319E+000	-1.4282764E+000	-2.638427282082534E+001	-4.2842108E-001	10	3.7684035E-002	5.4133629E+001
2	0	0	1	1.308269966950320E+002	-1.4290320E+000	-1.4293207E+000	-2.669996677937149E+001	-4.3373263E-001	10	3.8162816E-002	5.3532677E+001
2	0	0	1	1.310269966899796E+002	-1.4300318E+000	-1.4303045E+000	-2.701536612878317E+001	-4.3910727E-001	10	3.8640201E-002	5.2944111E+001
2	0	0	1	1.312269966849271E+002	-1.4310318E+000	-1.4313358E+000	-2.734293541481159E+001	-4.4454604E-001	10	3.9136924E-002	5.2347553E+001
2	0	0	1	1.314269966798747E+002	-1.4320316E+000	-1.4322823E+000	-2.766835199299854E+001	-4.5005035E-001	10	3.9628893E-002	5.1766087E+001
2	0	0	1	1.316269966748223E+002	-1.4330317E+000	-1.4333107E+000	-2.799604241593890E+001	-4.5561978E-001	10	4.0127028E-002	5.1196907E+001
2	0	0	1	1.318269966697699E+002	-1.4340317E+000	-1.4342978E+000	-2.832847553207762E+001	-4.6125552E-001	10	4.0631469E-002	5.0630955E+001
2	0	0	1	1.320269966647174E+002	-1.4350318E+000	-1.4353313E+000	-2.866426057853391E+001	-4.6695828E-001	10	4.1142713E-002	5.0073902E+001
2	0	0	1	1.322269966596650E+002	-1.4360317E+000	-1.4362874E+000	-2.900699133343164E+001	-4.7272900E-001	10	4.1662376E-002	4.9515213E+001
2	0	0	1	1.324269966546126E+002	-1.4370317E+000	-1.4372745E+000	-2.934943286794106E+001	-4.7856811E-001	10	4.2183191E-002	4.8971115E+001
2	0	0	1	1.326269966495602E+002	-1.4380316E+000	-1.4383037E+000	-2.968960308920504E+001	-4.8447558E-001	10	4.2702667E-002	4.8444695E+001
2	0	0	1	1.328269966445077E+002	-1.4390316E+000	-1.4393003E+000	-3.003432226910866E+001	-4.9045163E-001	10	4.3228410E-002	4.7921852E+001
2	0	0	1	1.330269966394553E+002	-1.4400316E+000	-1.4403191E+000	-3.038365515857049E+001	-4.9649692E-001	10	4.3762159E-002	4.7404404E+001
2	0	0	1	1.332269966344029E+002	-1.4410315E+000	-1.4412571E+000	-3.072466310541105E+001	-5.0261116E-001	10	4.4282138E-002	4.6908802E+001
2	0	0	1	1.334269966293505E+002	-1.4420315E+000	-1.4422843E+000	-3.107036523402701E+001	-5.0879407E-001	10	4.4812303E-002	4.6419937E+001
2	0	0	1	1.336269966242980E+002	-1.4430314E+000	-1.4432946E+000	-3.142041011299942E+001	-5.1504654E-001	10	4.5348909E-002	4.5934940E+001
2	0	0	1	1.338269966192456E+002	-1.4440315E+000	-1.4442997E+000	-3.177442374629499E+001	-5.2136940E-001	10	4.5891792E-002	4.5454788E+001
2	0	0	1	1.340269966141932E+002	-1.4450314E+000	-1.4453056E+000	-3.212481940873909E+001	-5.2776247E-001	10	4.6430182E-002	4.4990311E+001
2	0	0	1	1.342269966091408E+002	-1.4460315E+000	-1.4462705E+000	-3.247578083738998E+001	-5.3422606E-001	10	4.6968762E-002	4.4533817E+001
2	0	0	1	1.344269966040883E+002	-1.4470315E+000	-1.4473103E+000	-3.283048504280123E+001	-5.4076028E-001	10	4.7515899E-002	4.4084343E+001
2	0	0	1	1.346269965990359E+002	-1.4480314E+000	-1.4483100E+000	-3.317927995939101E+001	-5.4736489E-001	10	4.8053883E-002	4.3651039E+001
2	0	0	1	1.348269965939835E+002	-1.4490315E+000	-1.4492894E+000	-3.353024001159361E+001	-5.5403918E-001	10	4.8595022E-002	4.3223354E+001
2	0	0	1	1.350269965889311E+002	-1.4500313E+000	-1.4502764E+000	-3.388751664453616E+001	-5.6078398E-001	10	4.9146265E-002	4.2796772E+001
2	0	0	1	1.352269965838786E+002	-1.4510313E+000	-1.4512995E+000	-3.423756662031428E+001	-5.6759971E-001	10	4.9688965E-002	4.2389099E+001
2	0	0	1	1.354269965788262E+002	-1.4520314E+000	-1.4522481E+000	-3.458868287480050E+001	-5.7448566E-001	10	5.0231349E-002	4.1986221E+001
2	0	0	1	1.356269965737738E+002	-1.4530312E+000	-1.4532681E+000	-3.494834043487668E+001	-5.8144277E-001	10	5.0789308E-002	4.1583321E+001
2	0	0	1	1.358269965687214E+002	-1.4540312E+000	-1.4542539E+000	-3.532054434638991E+001	-5.8847338E-001	10	5.1365040E-002	4.1173031E+001
2	0	0	1	1.360269965636689E+002	-1.4550313E+000	-1.4553087E+000	-3.567879873230350E+001	-5.9557700E-001	10	5.1923666E-002	4.0789173E+001
2	0	0	1	1.362269965586165E+002	-1.4560312E+000	-1.4562713E+000	-3.603311525775204E+001	-6.0275155E-001	10	5.2473992E-002	4.0414803E+001
2	0	0	1	1.364269965535641E+002	-1.4570313E+000	-1.4572423E+000	-3.639232212264520E+001	-6.0999769E-001	10	5.3032428E-002	4.0042576E+001
2	0	0	1	1.366269965485117E+002	-1.4580312E+000	-1.4583098E+000	-3.676337338710323E+001	-6.1731702E-001	10	5.3612385E-002	3.9667465E+001
2	0	0	1	1.368269965434592E+002	-1.4590311E+000	-1.4592849E+000	-3.713026037427024E+001	-6.2471008E-001	10	5.4183628E-002	3.9301769E+001
2	0	0	1	1.370269965384068E+002	-1.4600312E+000	-1.4603270E+000	-3.750194438055257E+001	-6.3217729E-001	10	5.4765102E-002	3.8940037E+001
2	0	0	1	1.372269965333544E+002	-1.4610312E+000	-1.4613184E+000	-3.787958570955851E+001	-6.3971919E-001	10	5.5354133E-002	3.8577991E+001
2	0	0	1	1.374268965283045E+002	-1.4620310E+000	-1.4623063E+000	-3.825119290853672E+001	-6.4733195E-001	10	5.5934958E-002	3.8229038E+001
2	0	0	1	1.376268965232521E+002	-1.4630312E+000	-1.4632765E+000	-3.862267767509906E+001	-6.5502286E-001	10	5.6515656E-002	3.7886459E+001
2	0	0	1	1.378268965181996E+002	-1.4640315E+000	-1.4642942E+000	-3.899617855200972E+001	-6.6278863E-001	10	5.7101879E-002	3.7549683E+001
2	0	0	1	1.380267965131497E+002	-1.4650310E+000	-1.4652892E+000	-3.937579662287857E+001	-6.7062563E-001	10	5.7696931E-002	3.7212940E+001
2	0	0	0	1.382267965080973E+002	-1.4660310E+000	-1.4663113E+000	-3.975563737378360E+001	-6.7854244E-001	10	5.8294144E-002	3.6883106E+001
2	0	0	0	1.384267965030449E+002	-1.4670309E+000	-1.4673077E+000	-4.013065610261719E+001	-6.8653548E-001	10	5.8884021E-002	3.6563263E+001
2	0	0	0	1.386267964979925E+002	-1.4680309E+000	-1.4683117E+000	-4.052118756252071E+001	-6.9460446E-001	10	5.9497733E-002	3.6235653E+001
2	0	0	0	1.388267964929400E+002	-1.4690310E+000	-1.4693017E+000	-4.090754447718621E+001	-7.0275104E-001	10	6.0105525E-002	3.5917622E+001
2	0	0	0	1.390267964878876E+002	-1.4700310E+000	-1.4703068E+000	-4.128647120415201E+001	-7.1097487E-001	10	6.0703777E-002	3.5612312E+001
2	0	0	0	1.392267964828352E+002	-1.4710308E+000	-1.4712800E+000	-4.168274991177100E+001	-7.1927595E-001	10	6.1326995E-002	3.5297096E+001
2	0	0	0	1.394267964777828E+002	-1.4720309E+000	-1.4723114E+000	-4.207959638458249E+001	-7.2765601E-001	10	6.1954267E-002	3.4988724E+001
2	0	0	0	1.396267964727303E+002	-1.4730307E+000	-1.4732465E+000	-4.246643087355720E+001	-7.3611474E-001	10	6.2563516E-002	3.4692024E+001
2	0	0	0	1.398267964676779E+002	-1.4740307E+000	-1.4743509E+000	-4.287845509203657E+001	-7.4465376E-001	10	6.3217893E-002	3.4384422E+001
2	0	0	0	1.400267964626255E+002	-1.4750308E+000	-1.4752797E+000	-4.328231012577902E+001	-7.5327456E-001	10	6.3853510E-002	3.4085049E+001
2	0	0	0	1.402267964575731E+002	-1.4760308E+000	-1.4762994E+000	-4.368650331383662E+001	-7.6197594E-001	10	6.4494357E-002	3.3793034E+001
2	0	0	0	1.404267964525206E+002	-1.4770308E+000	-1.4772716E+000	-4.408975978340958E+001	-7.7075732E-001	10	6.5132551E-002	3.3506001E+001
2	0	0	0	1.406267964474682E+002	-1.4780308E+000	-1.4782935E+000	-4.448636699479727E+001	-7.7961844E-001	10	6.5763906E-002	3.3230259E+001
2	0	0	0	1.408267964424158E+002	-1.4790306E+000	-1.4793133E+000	-4.489095110552648E+001	-7.8856015E-001	10	6.6407777E-002	3.2953484E+001
2	0	0	0	1.410267964373634E+002	-1.4800307E+000	-1.4802779E+000	-4.529537639731444E+001	-7.9758322E-001	10	6.7049742E-002	3.2680553E+001
2	0	0	0	1.412267964323109E+002	-1.4810307E+000	-1.4812616E+000	-4.570665599943050E+001	-8.0668730E-001	10	6.7703515E-002	3.2408005E+001
2	0	0	0	1.414267964272585E+002	-1.4820305E+000	-1.4822676E+000	-4.612169356627254E+001	-8.1587386E-001	10	6.8364695E-002	3.2138187E+001
2	0	0	0	1.416267964222061E+002	-1.4830306E+000	-1.4833119E+000	-4.653842600835407E+001	-8.2514429E-001	10	6.9031000E-002	3.1872843E+001
2	0	0	0	1.418267964171537E+002	-1.4840306E+000	-1.4842587E+000	-4.696132144690091E+001	-8.3449930E-001	10	6.9702744E-002	3.1605982E+001
2	0	0	0	1.420267964121012E+002	-1.4850305E+000	-1.4852668E+000	-4.738752046463992E+001	-8.4393835E-001	10	7.0383109E-002	3.1342995E+001
2	0	0	0	1.422267964070488E+002	-1.4860305E+000	-1.4862611E+000	-4.778223581838506E+001	-8.5345918E-001	10	7.1016878E-002	3.1104889E+001
2	0	0	0	1.424267964019964E+002	-1.4870305E+000	-1.4872375E+000	-4.819916389426407E+001	-8.6306214E-001	10	7.1683601E-002	3.0856085E+001
2	0	0	0	1.426267963969440E+002	-1.4880306E+000	-1.4882613E+000	-4.861820901467416E+001	-8.7274820E-001	10	7.2356604E-002	3.0611193E+001
2	0	0	0	1.428267963918915E+002	-1.4890305E+000	-1.4893004E+000	-4.904277185653086E+001	-8.8251835E-001	10	7.3039420E-002	3.0367378E+001
2	0	0	0	1.430267963868391E+002	-1.4900305E+000	-1.4902555E+000	-4.946500722215836E+001	-8.9237332E-001	10	7.3715501E-002	3.0127470E+001
2	0	0	0	1.432267963817867E+002	-1.4910303E+000	-1.4912541E+000	-4.988846685935050E+001	-9.0231252E-001	10	7.4396379E-002	2.9891760E+001
2	0	0	0	1.434267963767343E+002	-1.4920304E+000	-1.4922993E+000	-5.031432117896838E+001	-9.1233718E-001	10	7.5084031E-002	2.9659534E+001
2	0	0	0	1.436267963716818E+002	-1.4930304E+000	-1.4932672E+000	-5.073352669912697E+001	-9.2244655E-001	10	7.5758711E-002	2.9433538E+001
2	0	0	0	1.438267963666294E+002	-1.4940302E+000	-1.4942850E+000	-5.116532950768942E+001	-9.3264174E-001	10	7.6455586E-002	2.9205030E+001
2	0	0	0	1.440267963615770E+002	-1.4950303E+000	-1.4952570E+000	-5.159770199176675E+001	-9.4292247E-001	10	7.7151828E-002	2.8979139E+001
2	0	0	0	1.442267963565246E+002	-1.4960303E+000	-1.4962671E+000	-5.201940692363155E+001	-9.5328832E-001	10	7.7834927E-002	2.8763632E+001
2	0	0	0	1.444267963514721E+002	-1.4970303E+000	-1.4972817E+000	-5.245372764377632E+001	-9.6374011E-001	10	7.8538008E-002	2.8544809E+001
2	0	0	0	1.446267963464197E+002	-1.4980303E+000	-1.4982961E+000	-5.290156357791125E+001	-9.7427934E-001	10	7.9262212E-002	2.8322342E+001
2	0	0	0	1.448267963413673E+002	-1.4990302E+000	-1.4992535E+000	-5.331241390818627E+001	-9.8490524E-001	10	7.9928823E-002	2.8122034E+001
2	0	0	0	1.449667963378306E+002	-1.4997301E+000	-1.4999615E+000	-5.359847833185790E+001	-9.9238622E-001	10	8.0395654E-002	2.7985151E+001
2	0	0	0	1.450107963367191E+002	-1.4999799E+000	-1.5002412E+000	-5.371063312731292E+001	-9.9474633E-001	10	8.0578901E-002	2.7931921E+001