EC-Lab ASCII FILE
Nb header lines : 61                          

Linear Sweep Voltammetry

Run on channel : 2 (SN 77481)
User : 
CE vs. WE compliance from -10 V to 10 V
Electrode connection : standard
Potential control : Ewe
Ewe ctrl range : min = -2.50 V, max = 2.50 V
Safety Limits :
	Do not start on E overload
Acquisition started on : 03/02/2026 15:39:48.282
Technique started on : 03/02/2026 15:39:48.282
Loaded Setting File :  D:\Dr. Kiran V\CE-II 2026\group F\020326\HER with SS\mSS 5 min HER_C02.mpr
Saved on :
	File : mSS 5 min HER after condn_C02.mpr
	Directory : D:\Dr. Kiran V\CE-II 2026\group F\020326\HER with SS\
	Host : 192.109.209.127
Device : SP-150e (SN .003673)
Address : 192.109.209.128
EC-LAB for windows v11.60 (software)
Internet server v11.60 (firmware)
Command interpretor v11.60 (firmware)
Electrode material : Au/Pd
Initial state : 
Electrolyte : NaCl (0.2M)
Comments : Fe(CN)63-/Fe(CN)64- 5.10-3 M
Reference electrode : SCE Saturated Calomel Electrode (0.241 V)
Electrode surface area : 0.001 cm²
Characteristic mass : 0.001 g
Equivalent Weight : 0.000 g/eq.
Density : 0.000 g/cm3
Volume (V) : 0.001 cm³
Cycle Definition : Charge/Discharge alternance
tR (h:m:s)          0:00:5.0000         
dER/dt (mV/h)       0.0                 
dER (mV)            0                   
dtR (s)             0.0000              
dE/dt               5.000               
dE/dt unit          mV/s                
Ei (V)              -0.800              
vs.                 Ref                 
EL (V)              -1.500              
vs.                 Ref                 
record              <I>                 
dI                  0.000               
unit dI             µA                  
tI (s)              0.0000              
step percent        50                  
N                   10                  
E range min (V)     -2.500              
E range max (V)     2.500               
I Range             Auto                
I Range min         Unset               
I Range max         Unset               
I Range init        Unset               
Bandwidth           5                   

mode	ox/red	error	control changes	time/s	control/V	Ewe/V	<I>/mA	(Q-Qo)/C	I Range	Pwe/W	Rwe/Ohm	
3	1	0	0	0.000000000000000E+000	0.0000000E+000	-8.0452716E-001	0.000000000000000E+000	0.0000000E+000	14	0.0000000E+000	0.0000000E+000
3	1	0	1	4.999799873694428E+000	-7.9994589E-001	-8.0300069E-001	0.000000000000000E+000	0.0000000E+000	14	0.0000000E+000	0.0000000E+000
2	1	0	0	5.079799871673458E+000	-8.0029577E-001	-8.0055821E-001	9.066935598850251E-002	9.3507915E-006	12	-7.2586095E-005	8.8294238E+003
2	1	0	0	5.189799868894625E+000	-8.0084586E-001	-8.0117637E-001	3.677134514739988E-002	1.2846871E-005	12	-2.9460332E-005	2.1788063E+004
2	1	0	0	5.389799863842200E+000	-8.0184585E-001	-8.0216336E-001	-1.936942909447034E-002	1.1749438E-005	12	1.5537446E-005	4.1413887E+004
2	0	0	0	5.589799858789775E+000	-8.0284584E-001	-8.0315989E-001	-5.471445892566862E-002	1.7079608E-006	12	4.3944459E-005	1.4679116E+004
2	0	0	0	5.789799853737350E+000	-8.0384588E-001	-8.0420929E-001	-8.423030958722111E-002	-1.4745997E-005	12	6.7738794E-005	9.5477422E+003
2	0	0	0	5.989799848684925E+000	-8.0484581E-001	-8.0517721E-001	-1.102794306384409E-001	-3.6685560E-005	12	8.8794484E-005	7.3012456E+003
2	0	0	0	6.189799843632500E+000	-8.0584574E-001	-8.0616623E-001	-1.326868812851358E-001	-6.3474203E-005	12	1.0696768E-004	6.0757041E+003
2	0	0	0	6.389799838580075E+000	-8.0684572E-001	-8.0718821E-001	-1.548409502564714E-001	-9.4732437E-005	12	1.2498579E-004	5.2130151E+003
2	0	0	0	6.589799833527650E+000	-8.0784577E-001	-8.0812639E-001	-1.751571361138127E-001	-1.3023152E-004	12	1.4154910E-004	4.6137222E+003
2	0	0	0	6.789799828475225E+000	-8.0884570E-001	-8.0914825E-001	-1.941158110898860E-001	-1.6964962E-004	12	1.5706847E-004	4.1683789E+003
2	0	0	0	6.989799823422800E+000	-8.0984563E-001	-8.1017238E-001	-2.126852481788579E-001	-2.1283474E-004	12	1.7231172E-004	3.8092551E+003
2	0	0	0	7.189799818370375E+000	-8.1084567E-001	-8.1120056E-001	-2.301869167251493E-001	-2.5966368E-004	12	1.8672776E-004	3.5240950E+003
2	0	0	0	7.389799813317950E+000	-8.1184560E-001	-8.1217694E-001	-2.479077626311161E-001	-3.0997134E-004	12	2.0134497E-004	3.2761255E+003
2	0	0	0	7.589799808265525E+000	-8.1284559E-001	-8.1317133E-001	-2.649246752114277E-001	-3.6372116E-004	12	2.1542914E-004	3.0694436E+003
2	0	0	0	7.789799803213100E+000	-8.1384563E-001	-8.1415081E-001	-2.805109098954919E-001	-4.2075853E-004	12	2.2837818E-004	2.9023855E+003
2	0	0	0	7.989799798160675E+000	-8.1484556E-001	-8.1514937E-001	-2.968006492434005E-001	-4.8096539E-004	12	2.4193687E-004	2.7464541E+003
2	0	0	0	8.189799793108250E+000	-8.1584549E-001	-8.1618834E-001	-3.119302098333090E-001	-5.4429407E-004	12	2.5459379E-004	2.6165735E+003
2	0	0	0	8.389799788055825E+000	-8.1684554E-001	-8.1715626E-001	-3.265875373056799E-001	-6.1064033E-004	12	2.6687304E-004	2.5021047E+003
2	0	0	0	8.589799783003400E+000	-8.1784552E-001	-8.1819403E-001	-3.418856287003413E-001	-6.7997852E-004	12	2.7972879E-004	2.3931804E+003
2	0	0	0	8.789799777950975E+000	-8.1884545E-001	-8.1913120E-001	-3.560003263267628E-001	-7.5230032E-004	12	2.9161098E-004	2.3009282E+003
2	0	0	0	8.989799772898550E+000	-8.1984550E-001	-8.2017636E-001	-3.712444197019025E-001	-8.2761416E-004	12	3.0448590E-004	2.2092625E+003
2	0	0	0	9.189799767846125E+000	-8.2084543E-001	-8.2114518E-001	-3.852832141583642E-001	-9.0574427E-004	12	3.1637345E-004	2.1312769E+003
2	0	0	0	9.389799762793700E+000	-8.2184541E-001	-8.2218421E-001	-3.981952184849265E-001	-9.8655350E-004	12	3.2738983E-004	2.0647766E+003
2	0	0	0	9.589799757741275E+000	-8.2284540E-001	-8.2316482E-001	-4.120849341221675E-001	-1.0700249E-003	12	3.3921382E-004	1.9975610E+003
2	0	0	0	9.789799752688850E+000	-8.2384539E-001	-8.2421219E-001	-4.248713328336233E-001	-1.1561709E-003	12	3.5018413E-004	1.9399102E+003
2	0	0	0	9.989799747636425E+000	-8.2484531E-001	-8.2518309E-001	-4.377276521311257E-001	-1.2448769E-003	12	3.6120546E-004	1.8851519E+003
2	0	0	0	1.018979974258400E+001	-8.2584536E-001	-8.2619768E-001	-4.508312483214674E-001	-1.3361552E-003	12	3.7247574E-004	1.8326096E+003
2	0	0	0	1.038979973753158E+001	-8.2684529E-001	-8.2714641E-001	-4.631446387171065E-001	-1.4299961E-003	12	3.8308842E-004	1.7859354E+003
2	0	0	0	1.058979973247915E+001	-8.2784528E-001	-8.2815462E-001	-4.751826142533222E-001	-1.5262676E-003	12	3.9352468E-004	1.7428134E+003
2	0	0	0	1.078979972742673E+001	-8.2884526E-001	-8.2919031E-001	-4.877559459449339E-001	-1.6250208E-003	12	4.0444251E-004	1.7000106E+003
2	0	0	0	1.098979972237430E+001	-8.2984525E-001	-8.3017296E-001	-4.991030038889832E-001	-1.7261901E-003	12	4.1434180E-004	1.6633300E+003
2	0	0	0	1.118979971732188E+001	-8.3084518E-001	-8.3116513E-001	-5.118949007994757E-001	-1.8297413E-003	12	4.2546919E-004	1.6237028E+003
2	0	0	0	1.138979971226945E+001	-8.3184522E-001	-8.3214480E-001	-5.229020294798818E-001	-1.9356622E-003	12	4.3513021E-004	1.5913971E+003
2	0	0	0	1.158979970721703E+001	-8.3284515E-001	-8.3316457E-001	-5.345215889331696E-001	-2.0438682E-003	12	4.4534446E-004	1.5587108E+003
2	0	0	0	1.178979970216460E+001	-8.3384514E-001	-8.3416641E-001	-5.462674433977908E-001	-2.1543831E-003	12	4.5567795E-004	1.5270293E+003
2	0	0	0	1.198979969711218E+001	-8.3484507E-001	-8.3516496E-001	-5.565627947145568E-001	-2.2671530E-003	12	4.6482176E-004	1.5005763E+003
2	0	0	0	1.218979969205975E+001	-8.3584511E-001	-8.3614445E-001	-5.682586419043411E-001	-2.3821176E-003	12	4.7514631E-004	1.4714153E+003
2	0	0	0	1.238979968700733E+001	-8.3684504E-001	-8.3717281E-001	-5.796142216442411E-001	-2.4993091E-003	12	4.8523725E-004	1.4443621E+003
2	0	0	0	1.258979968195490E+001	-8.3784509E-001	-8.3817351E-001	-5.902280730370624E-001	-2.6187110E-003	12	4.9471355E-004	1.4200841E+003
2	0	0	0	1.278979967690248E+001	-8.3884507E-001	-8.3917636E-001	-6.014226026951315E-001	-2.7402835E-003	12	5.0469965E-004	1.3953190E+003
2	0	0	1	1.298979967185005E+001	-8.3984518E-001	-8.4019732E-001	-6.116207246028353E-001	-2.8640069E-003	12	5.1388209E-004	1.3737228E+003
2	0	0	1	1.318979966679763E+001	-8.4084553E-001	-8.4114766E-001	-6.224154361843794E-001	-2.9897729E-003	12	5.2354328E-004	1.3514248E+003
2	0	0	1	1.338959966175025E+001	-8.4184498E-001	-8.4210324E-001	-6.323565174885322E-001	-3.1175346E-003	12	5.3250947E-004	1.3316907E+003
2	0	0	1	1.358959965669783E+001	-8.4284484E-001	-8.4313035E-001	-6.428091036168500E-001	-3.2474922E-003	12	5.4197188E-004	1.3116342E+003
2	0	0	1	1.378959965164540E+001	-8.4384495E-001	-8.4418845E-001	-6.533533399312219E-001	-3.3794646E-003	12	5.5155333E-004	1.2920856E+003
2	0	0	1	1.398959964659298E+001	-8.4484494E-001	-8.4515840E-001	-6.638005172871804E-001	-3.5135807E-003	12	5.6101655E-004	1.2732114E+003
2	0	0	1	1.418959964154055E+001	-8.4584486E-001	-8.4615803E-001	-6.732312276486354E-001	-3.6497428E-003	12	5.6965998E-004	1.2568610E+003
2	0	0	1	1.438959963648813E+001	-8.4684491E-001	-8.4721601E-001	-6.837331611038007E-001	-3.7878344E-003	12	5.7926966E-004	1.2391033E+003
2	0	0	1	1.458959963143570E+001	-8.4784484E-001	-8.4819555E-001	-6.930890539006382E-001	-3.9278846E-003	12	5.8787508E-004	1.2237902E+003
2	0	0	1	1.478959962638328E+001	-8.4884483E-001	-8.4919631E-001	-7.026481555432689E-001	-4.0698615E-003	12	5.9668621E-004	1.2085656E+003
2	0	0	1	1.498959962133085E+001	-8.4984475E-001	-8.5018009E-001	-7.125435020487396E-001	-4.2137671E-003	12	6.0579029E-004	1.1931624E+003
2	0	0	1	1.518959961627843E+001	-8.5084480E-001	-8.5117650E-001	-7.212470542267777E-001	-4.3595806E-003	12	6.1390852E-004	1.1801455E+003
2	0	0	1	1.538959961122600E+001	-8.5184473E-001	-8.5216767E-001	-7.314305689667364E-001	-4.5072804E-003	12	6.2330149E-004	1.1650698E+003
2	0	0	1	1.558959960617358E+001	-8.5284477E-001	-8.5320556E-001	-7.405764699201853E-001	-4.6568760E-003	12	6.3186395E-004	1.1520830E+003
2	0	0	1	1.578959960112115E+001	-8.5384470E-001	-8.5423166E-001	-7.498203031169632E-001	-4.8083179E-003	12	6.4052024E-004	1.1392485E+003
2	0	0	1	1.598959959606873E+001	-8.5484469E-001	-8.5516453E-001	-7.592170401444633E-001	-4.9615679E-003	12	6.4925547E-004	1.1263768E+003
2	0	0	1	1.618959959101630E+001	-8.5584462E-001	-8.5617161E-001	-7.676861051875505E-001	-5.1166695E-003	12	6.5727107E-004	1.1152626E+003
2	0	0	1	1.638959958596388E+001	-8.5684454E-001	-8.5716701E-001	-7.769312804222728E-001	-5.2735270E-003	12	6.6595984E-004	1.1032726E+003
2	0	0	1	1.658959958091145E+001	-8.5784459E-001	-8.5814977E-001	-7.862167272573215E-001	-5.4322071E-003	12	6.7469169E-004	1.0914927E+003
2	0	0	1	1.678959957585903E+001	-8.5884464E-001	-8.5920990E-001	-7.947977310439374E-001	-5.5927048E-003	12	6.8289810E-004	1.0810422E+003
2	0	0	1	1.698959957080660E+001	-8.5984457E-001	-8.6019677E-001	-8.038125846560309E-001	-5.7549216E-003	12	6.9143699E-004	1.0701459E+003
2	0	0	1	1.718959956575418E+001	-8.6084455E-001	-8.6116475E-001	-8.124917613642273E-001	-5.9189205E-003	12	6.9968926E-004	1.0599058E+003
2	0	0	1	1.738959956070175E+001	-8.6184448E-001	-8.6218554E-001	-8.207066197142590E-001	-6.0846270E-003	12	7.0760137E-004	1.0505405E+003
2	0	0	1	1.758959955564933E+001	-8.6284447E-001	-8.6318517E-001	-8.293199062246064E-001	-6.2520173E-003	12	7.1585661E-004	1.0408350E+003
2	0	0	1	1.778959955059690E+001	-8.6384445E-001	-8.6418802E-001	-8.382278364109474E-001	-6.4211437E-003	12	7.2438642E-004	1.0309703E+003
2	0	0	1	1.798959954554448E+001	-8.6484450E-001	-8.6518657E-001	-8.459357642262428E-001	-6.5919417E-003	12	7.3189224E-004	1.0227568E+003
2	0	0	1	1.818959954049205E+001	-8.6584449E-001	-8.6616820E-001	-8.547207981837985E-001	-6.7644143E-003	12	7.4033201E-004	1.0133931E+003
2	0	0	1	1.838959953543963E+001	-8.6684442E-001	-8.6715627E-001	-8.622656892182583E-001	-6.9384892E-003	12	7.4771908E-004	1.0056718E+003
2	0	0	1	1.858959953038720E+001	-8.6784434E-001	-8.6816227E-001	-8.707098595358715E-001	-7.1141622E-003	12	7.5591746E-004	9.9707416E+002
2	0	0	1	1.878959952533478E+001	-8.6884433E-001	-8.6917567E-001	-8.786878307136661E-001	-7.2914679E-003	12	7.6373410E-004	9.8917456E+002
2	0	0	1	1.898959952028235E+001	-8.6984426E-001	-8.7014037E-001	-8.862702620644427E-001	-7.4703423E-003	12	7.7117956E-004	9.8180023E+002
2	0	0	1	1.918959951522993E+001	-8.7084430E-001	-8.7117922E-001	-8.947815241507482E-001	-7.6507898E-003	12	7.7951507E-004	9.7362225E+002
2	0	0	1	1.938959951017750E+001	-8.7184435E-001	-8.7212598E-001	-9.021152050282932E-001	-7.8328457E-003	12	7.8675809E-004	9.6675677E+002
2	0	0	1	1.958959950512508E+001	-8.7284428E-001	-8.7318599E-001	-9.095546788707054E-001	-8.0163823E-003	12	7.9421041E-004	9.6001483E+002
2	0	0	1	1.978959950007265E+001	-8.7384421E-001	-8.7412840E-001	-9.177449360540553E-001	-8.2014687E-003	12	8.0222689E-004	9.5247424E+002
2	0	0	1	1.998959949502023E+001	-8.7484419E-001	-8.7512177E-001	-9.253944933177944E-001	-8.3881086E-003	12	8.0983288E-004	9.4567426E+002
2	0	0	1	2.018959948996780E+001	-8.7584424E-001	-8.7613207E-001	-9.325016524617364E-001	-8.5762246E-003	12	8.1699458E-004	9.3955017E+002
2	0	0	1	2.038959948491538E+001	-8.7684417E-001	-8.7716562E-001	-9.400944608324933E-001	-8.7658688E-003	12	8.2461856E-004	9.3306116E+002
2	0	0	1	2.058959947986295E+001	-8.7784410E-001	-8.7812394E-001	-9.476379491557800E-001	-8.9570070E-003	12	8.3214359E-004	9.2664496E+002
2	0	0	1	2.078959947481053E+001	-8.7884414E-001	-8.7918925E-001	-9.550547792054616E-001	-9.1495775E-003	12	8.3967391E-004	9.2056421E+002
2	0	0	1	2.098959946975810E+001	-8.7984413E-001	-8.8011158E-001	-9.621750768485260E-001	-9.3436297E-003	12	8.4682141E-004	9.1471045E+002
2	0	0	1	2.118959946470568E+001	-8.8084406E-001	-8.8117379E-001	-9.688026982184317E-001	-9.5390929E-003	12	8.5368357E-004	9.0954926E+002
2	0	0	1	2.138959945965325E+001	-8.8184410E-001	-8.8219142E-001	-9.767569419241582E-001	-9.7360071E-003	12	8.6168660E-004	9.0318420E+002
2	0	0	1	2.158959945460083E+001	-8.8284403E-001	-8.8316888E-001	-9.834795621922738E-001	-9.9343816E-003	12	8.6857856E-004	8.9800427E+002
2	0	0	1	2.178959944954840E+001	-8.8384408E-001	-8.8414216E-001	-9.905608498460907E-001	-1.0134133E-002	12	8.7579660E-004	8.9256726E+002
2	0	0	1	2.198949944449851E+001	-8.8484383E-001	-8.8514048E-001	-9.975444411313710E-001	-1.0335207E-002	12	8.8296697E-004	8.8731934E+002
2	0	0	1	2.218939943944861E+001	-8.8584387E-001	-8.8613063E-001	-1.004096294389283E+000	-1.0537622E-002	12	8.8976050E-004	8.8251556E+002
2	0	0	0	2.238939943439618E+001	-8.8684392E-001	-8.8714731E-001	-1.011688806902185E+000	-1.0741509E-002	12	8.9751702E-004	8.7689740E+002
2	0	0	0	2.258939942934376E+001	-8.8784397E-001	-8.8813752E-001	-1.018219311457642E+000	-1.0946780E-002	12	9.0431876E-004	8.7224579E+002
2	0	0	0	2.278939942429133E+001	-8.8884389E-001	-8.8915622E-001	-1.024399386554143E+000	-1.1153391E-002	12	9.1085111E-004	8.6797809E+002
2	0	0	0	2.298939941923891E+001	-8.8984388E-001	-8.9018351E-001	-1.031934356050835E+000	-1.1361346E-002	12	9.1861095E-004	8.6263580E+002
2	0	0	0	2.318939941418648E+001	-8.9084387E-001	-8.9114922E-001	-1.037755384694899E+000	-1.1570632E-002	12	9.2479488E-004	8.5872766E+002
2	0	0	0	2.338939940913406E+001	-8.9184386E-001	-8.9218915E-001	-1.044434636822835E+000	-1.1781191E-002	12	9.3183323E-004	8.5423169E+002
2	0	0	0	2.358939940408163E+001	-8.9284378E-001	-8.9316452E-001	-1.051196924607161E+000	-1.1993065E-002	12	9.3889178E-004	8.4966431E+002
2	0	0	0	2.378939939902921E+001	-8.9384389E-001	-8.9414507E-001	-1.057003984316473E+000	-1.2206216E-002	12	9.4511488E-004	8.4592401E+002
2	0	0	0	2.399939939372416E+001	-8.9489388E-001	-8.9520407E-001	-1.062736425604552E+000	-1.2431698E-002	12	9.5136598E-004	8.4235754E+002
2	0	0	0	2.420939938841912E+001	-8.9594364E-001	-8.9620477E-001	-1.071323301879664E+000	-1.2658642E-002	11	9.6012506E-004	8.3653998E+002
2	0	0	0	2.440939938336669E+001	-8.9694375E-001	-8.9726812E-001	-1.077444673260323E+000	-1.2875859E-002	11	9.6675678E-004	8.3277417E+002
2	0	0	0	2.460939937831427E+001	-8.9794374E-001	-8.9824015E-001	-1.083815068580932E+000	-1.3094277E-002	11	9.7352621E-004	8.2877618E+002
2	0	0	0	2.480939937326184E+001	-8.9894372E-001	-8.9928424E-001	-1.089731089576508E+000	-1.3313903E-002	11	9.7997801E-004	8.2523499E+002
2	0	0	0	2.500939936820942E+001	-8.9994371E-001	-9.0026069E-001	-1.095515870005567E+000	-1.3534727E-002	11	9.8624988E-004	8.2176874E+002
2	0	0	0	2.520939936315699E+001	-9.0094364E-001	-9.0126139E-001	-1.101524707757767E+000	-1.3756753E-002	11	9.9276169E-004	8.1819446E+002
2	0	0	0	2.540939935810457E+001	-9.0194362E-001	-9.0225059E-001	-1.107401943319982E+000	-1.3979958E-002	11	9.9915406E-004	8.1474536E+002
2	0	0	0	2.560939935305214E+001	-9.0294355E-001	-9.0327984E-001	-1.114005931532708E+000	-1.4204385E-002	11	1.0062591E-003	8.1083936E+002
2	0	0	0	2.580939934799972E+001	-9.0394360E-001	-9.0428269E-001	-1.119699676662616E+000	-1.4429960E-002	11	1.0125251E-003	8.0761182E+002
2	0	0	0	2.600939934294729E+001	-9.0494353E-001	-9.0525156E-001	-1.124836542016386E+000	-1.4656689E-002	11	1.0182600E-003	8.0478497E+002
2	0	0	0	2.620939933789487E+001	-9.0594357E-001	-9.0623420E-001	-1.130779233032545E+000	-1.4884538E-002	11	1.0247509E-003	8.0142450E+002
2	0	0	0	2.640939933284244E+001	-9.0694362E-001	-9.0724450E-001	-1.136072612639994E+000	-1.5113502E-002	11	1.0306956E-003	7.9857965E+002
2	0	0	0	2.660939932779002E+001	-9.0794349E-001	-9.0826005E-001	-1.141449961203094E+000	-1.5343526E-002	11	1.0367334E-003	7.9570728E+002
2	0	0	0	2.680939932273759E+001	-9.0894341E-001	-9.0926611E-001	-1.147240972226639E+000	-1.5574664E-002	11	1.0431473E-003	7.9256769E+002
2	0	0	0	2.700939931768517E+001	-9.0994340E-001	-9.1023922E-001	-1.152616839796773E+000	-1.5806908E-002	11	1.0491570E-003	7.8971533E+002
2	0	0	0	2.720939931263274E+001	-9.1094339E-001	-9.1123682E-001	-1.157894158866807E+000	-1.6040185E-002	11	1.0551158E-003	7.8697766E+002
2	0	0	0	2.740939930758032E+001	-9.1194344E-001	-9.1225982E-001	-1.163077987122293E+000	-1.6274504E-002	11	1.0610293E-003	7.8434967E+002
2	0	0	0	2.760939930252789E+001	-9.1294336E-001	-9.1327751E-001	-1.167855977260267E+000	-1.6509842E-002	11	1.0665766E-003	7.8201208E+002
2	0	0	0	2.780939929747547E+001	-9.1394335E-001	-9.1423678E-001	-1.173361524356670E+000	-1.6746184E-002	11	1.0727303E-003	7.7916034E+002
2	0	0	0	2.800939929242304E+001	-9.1494340E-001	-9.1524601E-001	-1.178268930074376E+000	-1.6983559E-002	11	1.0784059E-003	7.7677173E+002
2	0	0	0	2.820939928737062E+001	-9.1594326E-001	-9.1624564E-001	-1.182930832352837E+000	-1.7221922E-002	11	1.0838552E-003	7.7455554E+002
2	0	0	0	2.840939928231819E+001	-9.1694319E-001	-9.1725278E-001	-1.188216963626633E+000	-1.7461278E-002	11	1.0898953E-003	7.7195734E+002
2	0	0	0	2.860939927726577E+001	-9.1794330E-001	-9.1823345E-001	-1.192590130987218E+000	-1.7701587E-002	11	1.0950762E-003	7.6994891E+002
2	0	0	0	2.880939927221334E+001	-9.1894329E-001	-9.1928184E-001	-1.197972205372491E+000	-1.7942881E-002	11	1.1012740E-003	7.6736493E+002
2	0	0	0	2.900939926716092E+001	-9.1994321E-001	-9.2020732E-001	-1.202678720941964E+000	-1.8185159E-002	11	1.1067138E-003	7.6513147E+002
2	0	0	0	2.920939926210849E+001	-9.2094326E-001	-9.2128855E-001	-1.207340040343421E+000	-1.8428374E-002	11	1.1123086E-003	7.6307300E+002
2	0	0	0	2.940939925705607E+001	-9.2194319E-001	-9.2231363E-001	-1.214600603554459E+000	-1.8672815E-002	11	1.1202426E-003	7.5935547E+002
2	0	0	0	2.960939925200364E+001	-9.2294306E-001	-9.2330062E-001	-1.217973464859174E+000	-1.8918322E-002	11	1.1245557E-003	7.5806299E+002
2	0	0	0	2.980939924695122E+001	-9.2394310E-001	-9.2426109E-001	-1.222396124247250E+000	-1.9164566E-002	11	1.1298131E-003	7.5610602E+002
2	0	0	0	3.000939924189879E+001	-9.2494315E-001	-9.2526275E-001	-1.226973755753978E+000	-1.9411707E-002	11	1.1352731E-003	7.5410150E+002
2	0	0	0	3.020939923684637E+001	-9.2594314E-001	-9.2630494E-001	-1.230864610573668E+000	-1.9659720E-002	11	1.1401559E-003	7.5256445E+002
2	0	0	0	3.040939923179394E+001	-9.2694312E-001	-9.2729181E-001	-1.236004973983482E+000	-1.9908622E-002	11	1.1461372E-003	7.5023309E+002
2	0	0	0	3.060939922674152E+001	-9.2794305E-001	-9.2829359E-001	-1.240313038745233E+000	-2.0158412E-002	11	1.1513747E-003	7.4843494E+002
2	0	0	1	3.080929922169162E+001	-9.2894298E-001	-9.2931342E-001	-1.244353669326918E+000	-2.0408956E-002	11	1.1563946E-003	7.4682422E+002
2	0	0	1	3.100929921663919E+001	-9.2994320E-001	-9.3028569E-001	-1.249040869919630E+000	-2.0660479E-002	11	1.1619648E-003	7.4480005E+002
2	0	0	1	3.120919921158929E+001	-9.3094289E-001	-9.3130535E-001	-1.252611607093524E+000	-2.0912714E-002	11	1.1665639E-003	7.4349091E+002
2	0	0	1	3.140919920653687E+001	-9.3194294E-001	-9.3228799E-001	-1.257098765988875E+000	-2.1165881E-002	11	1.1719781E-003	7.4161871E+002
2	0	0	1	3.160919920148444E+001	-9.3294299E-001	-9.3328768E-001	-1.261290660233588E+000	-2.1419873E-002	11	1.1771470E-003	7.3994653E+002
2	0	0	1	3.180919919643202E+001	-9.3394291E-001	-9.3423855E-001	-1.264973625709681E+000	-2.1674646E-002	11	1.1817871E-003	7.3854388E+002
2	0	0	1	3.200919919137959E+001	-9.3494290E-001	-9.3526906E-001	-1.269668808810907E+000	-2.1930248E-002	11	1.1874819E-003	7.3662445E+002
2	0	0	1	3.220919918632717E+001	-9.3594283E-001	-9.3630254E-001	-1.273077148116299E+000	-2.2186650E-002	11	1.1919853E-003	7.3546411E+002
2	0	0	1	3.240919918127474E+001	-9.3694282E-001	-9.3726093E-001	-1.276633483254244E+000	-2.2443803E-002	11	1.1965387E-003	7.3416602E+002
2	0	0	1	3.260919917622232E+001	-9.3794280E-001	-9.3825316E-001	-1.280784588594353E+000	-2.2701707E-002	11	1.2017002E-003	7.3256128E+002
2	0	0	1	3.280919917116989E+001	-9.3894279E-001	-9.3929517E-001	-1.284279341448323E+000	-2.2960344E-002	11	1.2063173E-003	7.3137915E+002
2	0	0	1	3.300919916611747E+001	-9.3994278E-001	-9.4027472E-001	-1.287952054579171E+000	-2.3219736E-002	11	1.2110288E-003	7.3005414E+002
2	0	0	1	3.320919916106504E+001	-9.4094276E-001	-9.4135070E-001	-1.292235643313585E+000	-2.3479927E-002	11	1.2164470E-003	7.2846674E+002
2	0	0	1	3.340919915601262E+001	-9.4194269E-001	-9.4231856E-001	-1.294764991579342E+000	-2.3740787E-002	11	1.2200811E-003	7.2779120E+002
2	0	0	1	3.360919915096019E+001	-9.4294268E-001	-9.4328648E-001	-1.298523549936593E+000	-2.4002295E-002	11	1.2248798E-003	7.2642999E+002
2	0	0	1	3.380919914590777E+001	-9.4394261E-001	-9.4429046E-001	-1.302370630888916E+000	-2.4264539E-002	11	1.2298161E-003	7.2505511E+002
2	0	0	1	3.400919914085534E+001	-9.4494265E-001	-9.4528675E-001	-1.305808805030628E+000	-2.4527481E-002	11	1.2343638E-003	7.2390900E+002
2	0	0	1	3.420919913580292E+001	-9.4594258E-001	-9.4628012E-001	-1.309718499454307E+000	-2.4791135E-002	11	1.2393605E-003	7.2250647E+002
2	0	0	1	3.440919913075049E+001	-9.4694263E-001	-9.4728619E-001	-1.313561996254993E+000	-2.5055597E-002	11	1.2443191E-003	7.2115833E+002
2	0	0	1	3.460919912569807E+001	-9.4794267E-001	-9.4830072E-001	-1.317438957836825E+000	-2.5320888E-002	11	1.2493283E-003	7.1980621E+002
2	0	0	1	3.480919912064564E+001	-9.4894254E-001	-9.4927061E-001	-1.321927814036950E+000	-2.5586935E-002	11	1.2548672E-003	7.1809564E+002
2	0	0	1	3.500919911559322E+001	-9.4994247E-001	-9.5028412E-001	-1.324832219867000E+000	-2.5853707E-002	11	1.2589670E-003	7.1728638E+002
2	0	0	1	3.520919911054079E+001	-9.5094252E-001	-9.5132399E-001	-1.328797706130411E+000	-2.6121194E-002	11	1.2641171E-003	7.1592841E+002
2	0	0	1	3.540919910548837E+001	-9.5194244E-001	-9.5227492E-001	-1.332349799269315E+000	-2.6389388E-002	11	1.2687633E-003	7.1473340E+002
2	0	0	1	3.560919910043594E+001	-9.5294249E-001	-9.5326930E-001	-1.335593489655492E+000	-2.6658297E-002	11	1.2731802E-003	7.1374213E+002
2	0	0	1	3.580919909538352E+001	-9.5394254E-001	-9.5428270E-001	-1.339577692993780E+000	-2.6927909E-002	11	1.2783358E-003	7.1237579E+002
2	0	0	1	3.600919909033109E+001	-9.5494246E-001	-9.5530361E-001	-1.342884520343302E+000	-2.7198253E-002	11	1.2828624E-003	7.1138177E+002
2	0	0	1	3.620919908527867E+001	-9.5594245E-001	-9.5630312E-001	-1.352624656197506E+000	-2.7469849E-002	11	1.2935192E-003	7.0699817E+002
2	0	0	1	3.640919908022624E+001	-9.5694238E-001	-9.5727426E-001	-1.360609270125424E+000	-2.7743291E-002	11	1.3024763E-003	7.0356293E+002
2	0	0	1	3.660919907517382E+001	-9.5794225E-001	-9.5829087E-001	-1.366672960040322E+000	-2.8018137E-002	11	1.3096703E-003	7.0118524E+002
2	0	0	1	3.680919907012139E+001	-9.5894235E-001	-9.5929378E-001	-1.370348228906153E+000	-2.8293937E-002	11	1.3145666E-003	7.0003650E+002
2	0	0	1	3.700919906506897E+001	-9.5994240E-001	-9.6026582E-001	-1.373858828004662E+000	-2.8570425E-002	11	1.3192696E-003	6.9895526E+002
2	0	0	1	3.720919906001654E+001	-9.6094233E-001	-9.6129310E-001	-1.376271477708272E+000	-2.8847517E-002	11	1.3230003E-003	6.9847638E+002
2	0	0	1	3.740919905496412E+001	-9.6194232E-001	-9.6228641E-001	-1.379774372357357E+000	-2.9125199E-002	11	1.3277382E-003	6.9742303E+002
2	0	0	1	3.760919904991169E+001	-9.6294224E-001	-9.6327233E-001	-1.382569510810704E+000	-2.9403511E-002	11	1.3317909E-003	6.9672614E+002
2	0	0	1	3.780919904485927E+001	-9.6394211E-001	-9.6425712E-001	-1.385514654092443E+000	-2.9682430E-002	11	1.3359924E-003	6.9595593E+002
2	0	0	1	3.800919903980684E+001	-9.6494222E-001	-9.6526742E-001	-1.388945412870655E+000	-2.9961973E-002	11	1.3407038E-003	6.9496423E+002
2	0	0	1	3.820919903475442E+001	-9.6594220E-001	-9.6625322E-001	-1.392023233422282E+000	-3.0242153E-002	11	1.3450469E-003	6.9413586E+002
2	0	0	1	3.840919902970199E+001	-9.6694219E-001	-9.6726459E-001	-1.395665264842595E+000	-3.0523026E-002	11	1.3499776E-003	6.9304913E+002
2	0	0	1	3.860919902464957E+001	-9.6794218E-001	-9.6827489E-001	-1.398951735786770E+000	-3.0804537E-002	11	1.3545698E-003	6.9214319E+002
2	0	0	1	3.880919901959714E+001	-9.6894211E-001	-9.6925962E-001	-1.401938713934960E+000	-3.1086674E-002	11	1.3588426E-003	6.9137091E+002
2	0	0	1	3.900919901454472E+001	-9.6994209E-001	-9.7026676E-001	-1.405594984293316E+000	-3.1369451E-002	11	1.3638021E-003	6.9028900E+002
2	0	0	1	3.920919900949229E+001	-9.7094202E-001	-9.7130030E-001	-1.408554219892098E+000	-3.1652879E-002	11	1.3681292E-003	6.8957251E+002
2	0	0	1	3.940919900443987E+001	-9.7194195E-001	-9.7227985E-001	-1.411711748909035E+000	-3.1936940E-002	11	1.3725789E-003	6.8872406E+002
2	0	0	1	3.960919899938744E+001	-9.7294217E-001	-9.7325099E-001	-1.415840643508995E+000	-3.2221735E-002	11	1.3779684E-003	6.8740149E+002
2	0	0	1	3.980909899433755E+001	-9.7394234E-001	-9.7428054E-001	-1.419390339161692E+000	-3.2507163E-002	11	1.3828843E-003	6.8640778E+002
2	0	0	1	4.000909898928512E+001	-9.7494239E-001	-9.7526437E-001	-1.422507431233564E+000	-3.2793418E-002	11	1.3873208E-003	6.8559528E+002
2	0	0	0	4.020899898423522E+001	-9.7594196E-001	-9.7625208E-001	-1.425488464162602E+000	-3.3080112E-002	11	1.3916361E-003	6.8485443E+002
2	0	0	0	4.040899897918280E+001	-9.7694188E-001	-9.7729409E-001	-1.428312059162424E+000	-3.3367530E-002	11	1.3958809E-003	6.8423010E+002
2	0	0	0	4.060899897413037E+001	-9.7794187E-001	-9.7825336E-001	-1.431612773014912E+000	-3.3655562E-002	11	1.4004800E-003	6.8332263E+002
2	0	0	0	4.080899896907795E+001	-9.7894186E-001	-9.7926795E-001	-1.434544387757107E+000	-3.3944231E-002	11	1.4048034E-003	6.8263342E+002
2	0	0	0	4.100899896402552E+001	-9.7994190E-001	-9.8027927E-001	-1.437808140183119E+000	-3.4233555E-002	11	1.4094535E-003	6.8178723E+002
2	0	0	0	4.120899895897310E+001	-9.8094189E-001	-9.8125023E-001	-1.441530753070680E+000	-3.4523532E-002	11	1.4145024E-003	6.8070020E+002
2	0	0	0	4.140899895392067E+001	-9.8194182E-001	-9.8226476E-001	-1.444571456992307E+000	-3.4814164E-002	11	1.4189517E-003	6.7996967E+002
2	0	0	0	4.160899894886825E+001	-9.8294187E-001	-9.8325807E-001	-1.447646691575816E+000	-3.5105441E-002	11	1.4234103E-003	6.7921136E+002
2	0	0	0	4.180899894381582E+001	-9.8394173E-001	-9.8429710E-001	-1.450776869857727E+000	-3.5397310E-002	11	1.4279955E-003	6.7846210E+002
2	0	0	0	4.200899893876340E+001	-9.8494166E-001	-9.8529136E-001	-1.453861627060405E+000	-3.5689797E-002	11	1.4324773E-003	6.7770642E+002
2	0	0	0	4.220899893371097E+001	-9.8594177E-001	-9.8629087E-001	-1.457406947334341E+000	-3.5982955E-002	11	1.4374271E-003	6.7674365E+002
2	0	0	0	4.240899892865855E+001	-9.8694175E-001	-9.8725045E-001	-1.460462508178274E+000	-3.6276776E-002	11	1.4418423E-003	6.7598480E+002
2	0	0	0	4.260899892360612E+001	-9.8794168E-001	-9.8828715E-001	-1.463778809211362E+000	-3.6571223E-002	11	1.4466338E-003	6.7516156E+002
2	0	0	0	4.280899891855370E+001	-9.8894173E-001	-9.8926455E-001	-1.466707264383636E+000	-3.6866292E-002	11	1.4509615E-003	6.7447986E+002
2	0	0	0	4.300899891350127E+001	-9.8994166E-001	-9.9027371E-001	-1.469826280149952E+000	-3.7161980E-002	11	1.4555303E-003	6.7373523E+002
2	0	0	0	4.320899890844885E+001	-9.9094152E-001	-9.9124694E-001	-1.473356267044537E+000	-3.7458315E-002	11	1.4604599E-003	6.7278156E+002
2	0	0	0	4.340899890339642E+001	-9.9194157E-001	-9.9225509E-001	-1.476626782688626E+000	-3.7755314E-002	11	1.4651904E-003	6.7197418E+002
2	0	0	0	4.360899889834400E+001	-9.9294162E-001	-9.9325997E-001	-1.479496170494230E+000	-3.8052954E-002	11	1.4695243E-003	6.7135016E+002
2	0	0	0	4.380899889329157E+001	-9.9394155E-001	-9.9423003E-001	-1.482926745356281E+000	-3.8351197E-002	11	1.4743702E-003	6.7045123E+002
2	0	0	0	4.400899888823915E+001	-9.9494159E-001	-9.9527532E-001	-1.485920142669592E+000	-3.8650069E-002	11	1.4788996E-003	6.6980402E+002
2	0	0	0	4.420899888318672E+001	-9.9594152E-001	-9.9626213E-001	-1.489137299341947E+000	-3.8949616E-002	11	1.4835711E-003	6.6901965E+002
2	0	0	0	4.440899887813430E+001	-9.9694151E-001	-9.9725229E-001	-1.492697040577859E+000	-3.9249815E-002	11	1.4885955E-003	6.6808752E+002
2	0	0	0	4.460899887308187E+001	-9.9794143E-001	-9.9826473E-001	-1.495602004246917E+000	-3.9550625E-002	11	1.4930067E-003	6.6746686E+002
2	0	0	0	4.480899886802945E+001	-9.9894136E-001	-9.9928552E-001	-1.499824583074265E+000	-3.9852198E-002	11	1.4987530E-003	6.6626825E+002
2	0	0	0	4.500899886297702E+001	-9.9994141E-001	-1.0002979E+000	-1.502575215484416E+000	-4.0154394E-002	11	1.5030229E-003	6.6572235E+002
2	0	0	0	4.520899885792460E+001	-1.0009415E+000	-1.0012871E+000	-1.505025962414113E+000	-4.0457137E-002	11	1.5069630E-003	6.6529559E+002
2	0	0	0	4.540899885287217E+001	-1.0019416E+000	-1.0023068E+000	-1.507924031364880E+000	-4.0760417E-002	11	1.5114025E-003	6.6469318E+002
2	0	0	0	4.560899884781975E+001	-1.0029414E+000	-1.0032587E+000	-1.510526237895299E+000	-4.1064210E-002	11	1.5154486E-003	6.6417828E+002
2	0	0	0	4.580899884276732E+001	-1.0039413E+000	-1.0042616E+000	-1.513174628496769E+000	-4.1368544E-002	11	1.5196232E-003	6.6367859E+002
2	0	0	0	4.600899883771490E+001	-1.0049413E+000	-1.0052569E+000	-1.516367114894514E+000	-4.1673474E-002	11	1.5243385E-003	6.6293768E+002
2	0	0	0	4.620899883266247E+001	-1.0059413E+000	-1.0062195E+000	-1.518815857119634E+000	-4.1978978E-002	11	1.5282622E-003	6.6250262E+002
2	0	0	0	4.640899882761005E+001	-1.0069413E+000	-1.0072415E+000	-1.521703188060496E+000	-4.2285033E-002	11	1.5327226E-003	6.6191718E+002
2	0	0	0	4.660899882255762E+001	-1.0079414E+000	-1.0082718E+000	-1.524440897776493E+000	-4.2591631E-002	11	1.5370508E-003	6.6140436E+002
2	0	0	0	4.680899881750520E+001	-1.0089413E+000	-1.0092821E+000	-1.527346108488887E+000	-4.2898782E-002	11	1.5415231E-003	6.6080774E+002
2	0	0	0	4.700899881245277E+001	-1.0099412E+000	-1.0103041E+000	-1.530334712654489E+000	-4.3206479E-002	11	1.5461034E-003	6.6018506E+002
2	0	0	0	4.720899880740035E+001	-1.0109411E+000	-1.0112518E+000	-1.533299733460154E+000	-4.3514784E-002	11	1.5505521E-003	6.5952649E+002
2	0	0	0	4.740899880234792E+001	-1.0119411E+000	-1.0122547E+000	-1.536090904225908E+000	-4.3823697E-002	11	1.5549152E-003	6.5898102E+002
2	0	0	0	4.760899879729550E+001	-1.0129412E+000	-1.0132798E+000	-1.539438771916021E+000	-4.4133250E-002	11	1.5598822E-003	6.5821375E+002
2	0	0	0	4.780899879224307E+001	-1.0139413E+000	-1.0142486E+000	-1.541739705721942E+000	-4.4443358E-002	11	1.5637074E-003	6.5785980E+002
2	0	0	0	4.800899878719065E+001	-1.0149411E+000	-1.0152971E+000	-1.545600168812431E+000	-4.4754054E-002	11	1.5692433E-003	6.5689502E+002
2	0	0	0	4.820899878213822E+001	-1.0159411E+000	-1.0162321E+000	-1.548608740238386E+000	-4.5065414E-002	11	1.5737460E-003	6.5622266E+002
2	0	0	1	4.840899877708580E+001	-1.0169411E+000	-1.0172286E+000	-1.551777163722122E+000	-4.5377374E-002	11	1.5785121E-003	6.5552490E+002
2	0	0	1	4.860899877203337E+001	-1.0179411E+000	-1.0182792E+000	-1.555747074736864E+000	-4.5690041E-002	11	1.5841848E-003	6.5452747E+002
2	0	0	1	4.880879876698600E+001	-1.0189407E+000	-1.0192400E+000	-1.558260789803249E+000	-4.6003044E-002	11	1.5882418E-003	6.5408820E+002
2	0	0	1	4.900889876193105E+001	-1.0199410E+000	-1.0202529E+000	-1.561541460976292E+000	-4.6317093E-002	11	1.5931673E-003	6.5336267E+002
2	0	0	1	4.920879875688115E+001	-1.0209410E+000	-1.0212485E+000	-1.564545420211543E+000	-4.6631459E-002	11	1.5977896E-003	6.5274451E+002
2	0	0	1	4.940879875182873E+001	-1.0219408E+000	-1.0222257E+000	-1.566978582933748E+000	-4.6946533E-002	11	1.6018058E-003	6.5235461E+002
2	0	0	1	4.960879874677630E+001	-1.0229409E+000	-1.0232531E+000	-1.570032480217168E+000	-4.7262192E-002	11	1.6065405E-003	6.5174005E+002
2	0	0	1	4.980879874172388E+001	-1.0239409E+000	-1.0242952E+000	-1.573293273630728E+000	-4.7578465E-002	11	1.6115168E-003	6.5105170E+002
2	0	0	1	5.000879873667145E+001	-1.0249408E+000	-1.0252407E+000	-1.575987313322871E+000	-4.7895335E-002	11	1.6157663E-003	6.5053864E+002
2	0	0	1	5.020879873161903E+001	-1.0259408E+000	-1.0262288E+000	-1.579490250977528E+000	-4.8212808E-002	11	1.6209184E-003	6.4972150E+002
2	0	0	1	5.040879872656660E+001	-1.0269408E+000	-1.0272422E+000	-1.582745647873059E+000	-4.8530966E-002	11	1.6258631E-003	6.4902545E+002
2	0	0	1	5.060879872151418E+001	-1.0279409E+000	-1.0282195E+000	-1.586883853132633E+000	-4.8849884E-002	11	1.6316648E-003	6.4794879E+002
2	0	0	1	5.080879871646175E+001	-1.0289408E+000	-1.0292606E+000	-1.590108491378979E+000	-4.9169503E-002	11	1.6366361E-003	6.4728955E+002
2	0	0	1	5.100879871140933E+001	-1.0299408E+000	-1.0302677E+000	-1.592145422553799E+000	-4.9489688E-002	11	1.6403360E-003	6.4709399E+002
2	0	0	1	5.120879870635690E+001	-1.0309408E+000	-1.0312557E+000	-1.595958615934089E+000	-4.9810477E-002	11	1.6458414E-003	6.4616693E+002
2	0	0	1	5.140879870130448E+001	-1.0319407E+000	-1.0322499E+000	-1.598933400970591E+000	-5.0131869E-002	11	1.6504988E-003	6.4558655E+002
2	0	0	1	5.160879869625205E+001	-1.0329406E+000	-1.0332264E+000	-1.601358099521690E+000	-5.0453801E-002	11	1.6545655E-003	6.4521881E+002
2	0	0	1	5.180879869119963E+001	-1.0339407E+000	-1.0342335E+000	-1.605068399893995E+000	-5.0776336E-002	11	1.6600154E-003	6.4435474E+002
2	0	0	1	5.200879868614720E+001	-1.0349406E+000	-1.0352299E+000	-1.608760490320843E+000	-5.1099628E-002	11	1.6654370E-003	6.4349536E+002
2	0	0	1	5.220879868109478E+001	-1.0359406E+000	-1.0362401E+000	-1.612966116644490E+000	-5.1423725E-002	11	1.6714202E-003	6.4244379E+002
2	0	0	1	5.240879867604235E+001	-1.0369406E+000	-1.0372462E+000	-1.616432856878198E+000	-5.1748544E-002	11	1.6766388E-003	6.4168842E+002
2	0	0	1	5.260879867098993E+001	-1.0379406E+000	-1.0382322E+000	-1.621406466393921E+000	-5.2074220E-002	11	1.6833964E-003	6.4032813E+002
2	0	0	1	5.280879866593750E+001	-1.0389405E+000	-1.0392444E+000	-1.630415251280034E+000	-5.2401371E-002	11	1.6944000E-003	6.3741089E+002
2	0	0	1	5.300879866088508E+001	-1.0399405E+000	-1.0402292E+000	-1.634627556432536E+000	-5.2729782E-002	11	1.7003873E-003	6.3637079E+002
2	0	0	1	5.320879865583265E+001	-1.0409405E+000	-1.0412161E+000	-1.638796682801106E+000	-5.3059056E-002	11	1.7063415E-003	6.3535406E+002
2	0	0	1	5.340879865078023E+001	-1.0419406E+000	-1.0422318E+000	-1.643780235260245E+000	-5.3389240E-002	11	1.7132000E-003	6.3404572E+002
2	0	0	1	5.360879864572780E+001	-1.0429406E+000	-1.0432324E+000	-1.648078180072392E+000	-5.3720340E-002	11	1.7193286E-003	6.3299939E+002
2	0	0	1	5.380879864067538E+001	-1.0439405E+000	-1.0442470E+000	-1.652163646270497E+000	-5.4052293E-002	11	1.7252670E-003	6.3204816E+002
2	0	0	1	5.400879863562295E+001	-1.0449405E+000	-1.0452584E+000	-1.656919192531213E+000	-5.4385100E-002	11	1.7319088E-003	6.3084454E+002
2	0	0	1	5.420879863057053E+001	-1.0459404E+000	-1.0462443E+000	-1.661225474374099E+000	-5.4718811E-002	11	1.7380476E-003	6.2980267E+002
2	0	0	1	5.440879862551810E+001	-1.0469403E+000	-1.0472428E+000	-1.665879437915329E+000	-5.5053439E-002	11	1.7445802E-003	6.2864258E+002
2	0	0	1	5.460879862046568E+001	-1.0479404E+000	-1.0482371E+000	-1.670775212431987E+000	-5.5389013E-002	11	1.7513685E-003	6.2739563E+002
2	0	0	1	5.480879861541325E+001	-1.0489404E+000	-1.0492624E+000	-1.675307527421008E+000	-5.5725522E-002	11	1.7578372E-003	6.2631030E+002
2	0	0	1	5.500879861036083E+001	-1.0499403E+000	-1.0502058E+000	-1.681578137690114E+000	-5.6063134E-002	11	1.7660032E-003	6.2453583E+002
2	0	0	1	5.520879860530840E+001	-1.0509404E+000	-1.0512531E+000	-1.686827284526792E+000	-5.6401916E-002	11	1.7732824E-003	6.2321326E+002
2	0	0	1	5.540879860025598E+001	-1.0519403E+000	-1.0522476E+000	-1.692798866182905E+000	-5.6741800E-002	11	1.7812436E-003	6.2160229E+002
2	0	0	1	5.560879859520355E+001	-1.0529401E+000	-1.0532005E+000	-1.698415154232192E+000	-5.7082839E-002	11	1.7887717E-003	6.2010779E+002
2	0	0	1	5.580879859015113E+001	-1.0539402E+000	-1.0542585E+000	-1.704286752965587E+000	-5.7425052E-002	11	1.7967587E-003	6.1859216E+002
2	0	0	1	5.600879858509870E+001	-1.0549403E+000	-1.0552614E+000	-1.710467510128101E+000	-5.7768457E-002	11	1.8049903E-003	6.1694324E+002
2	0	0	1	5.620879858004628E+001	-1.0559403E+000	-1.0562462E+000	-1.716201484777763E+000	-5.8113057E-002	11	1.8127313E-003	6.1545581E+002
2	0	0	1	5.640879857499385E+001	-1.0569402E+000	-1.0572617E+000	-1.722080501873478E+000	-5.8458820E-002	11	1.8206898E-003	6.1394440E+002
2	0	0	1	5.660879856994143E+001	-1.0579401E+000	-1.0582615E+000	-1.728881525834531E+000	-5.8805827E-002	11	1.8296088E-003	6.1210760E+002
2	0	0	1	5.680879856488900E+001	-1.0589402E+000	-1.0592536E+000	-1.734575739235972E+000	-5.9154078E-002	11	1.8373556E-003	6.1067010E+002
2	0	0	1	5.700879855983658E+001	-1.0599401E+000	-1.0602256E+000	-1.740974752929343E+000	-5.9503596E-002	11	1.8458260E-003	6.0898389E+002
2	0	0	1	5.720879855478415E+001	-1.0609401E+000	-1.0612328E+000	-1.748729050649398E+000	-5.9854515E-002	11	1.8558087E-003	6.0685950E+002
2	0	0	1	5.740869854973425E+001	-1.0619398E+000	-1.0622398E+000	-1.754975262339251E+000	-6.0206659E-002	11	1.8642045E-003	6.0527338E+002
2	0	0	1	5.760869854468183E+001	-1.0629399E+000	-1.0632275E+000	-1.763157483264701E+000	-6.0560439E-002	11	1.8746376E-003	6.0302472E+002
2	0	0	1	5.780869853962940E+001	-1.0639402E+000	-1.0643039E+000	-1.770362675543470E+000	-6.0915712E-002	11	1.8842039E-003	6.0117847E+002
2	0	0	1	5.800869853457698E+001	-1.0649403E+000	-1.0652136E+000	-1.778309124399854E+000	-6.1272513E-002	11	1.8942790E-003	5.9900360E+002
2	0	0	0	5.820859852952708E+001	-1.0659399E+000	-1.0662386E+000	-1.787109158358746E+000	-6.1630785E-002	11	1.9054848E-003	5.9662762E+002
2	0	0	0	5.840859852447466E+001	-1.0669399E+000	-1.0672393E+000	-1.796277185973803E+000	-6.1991058E-002	11	1.9170576E-003	5.9413953E+002
2	0	0	0	5.860859851942223E+001	-1.0679399E+000	-1.0682337E+000	-1.804612810869202E+000	-6.2353112E-002	11	1.9277483E-003	5.9194623E+002
2	0	0	0	5.880859851436981E+001	-1.0689399E+000	-1.0692556E+000	-1.814090317524887E+000	-6.2716939E-002	11	1.9397262E-003	5.8941693E+002
2	0	0	0	5.900859850931738E+001	-1.0699399E+000	-1.0702319E+000	-1.823507244269997E+000	-6.3082658E-002	11	1.9515756E-003	5.8690851E+002
2	0	0	0	5.920859850426496E+001	-1.0709399E+000	-1.0712305E+000	-1.833562359771348E+000	-6.3450322E-002	11	1.9641679E-003	5.8423456E+002
2	0	0	0	5.940859849921253E+001	-1.0719399E+000	-1.0722301E+000	-1.843796800678408E+000	-6.3820012E-002	11	1.9769745E-003	5.8153375E+002
2	0	0	0	5.960859849416011E+001	-1.0729399E+000	-1.0731981E+000	-1.854647652497359E+000	-6.4191818E-002	11	1.9904042E-003	5.7865338E+002
2	0	0	0	5.980859848910768E+001	-1.0739398E+000	-1.0742667E+000	-1.866689105440015E+000	-6.4565927E-002	11	2.0053219E-003	5.7549310E+002
2	0	0	0	6.000859848405526E+001	-1.0749397E+000	-1.0752006E+000	-1.877437411877168E+000	-6.4942300E-002	11	2.0186217E-003	5.7269580E+002
2	0	0	0	6.020859847900283E+001	-1.0759398E+000	-1.0762913E+000	-1.889910772088022E+000	-6.5321021E-002	11	2.0340947E-003	5.6949316E+002
2	0	0	0	6.040859847395041E+001	-1.0769397E+000	-1.0772667E+000	-1.903166854564020E+000	-6.5702304E-002	11	2.0502182E-003	5.6603900E+002
2	0	0	0	6.060859846889798E+001	-1.0779397E+000	-1.0782387E+000	-1.915631010655364E+000	-6.6086166E-002	11	2.0655075E-003	5.6286346E+002
2	0	0	0	6.080859846384556E+001	-1.0789397E+000	-1.0792575E+000	-1.929063874374990E+000	-6.6472620E-002	11	2.0819567E-003	5.5947211E+002
2	0	0	0	6.100859845879313E+001	-1.0799397E+000	-1.0802306E+000	-1.943041730545414E+000	-6.6861801E-002	11	2.0989331E-003	5.5594824E+002
2	0	0	0	6.120859845374071E+001	-1.0809395E+000	-1.0812027E+000	-1.959697777502530E+000	-6.7254052E-002	11	2.1188306E-003	5.5171912E+002
2	0	0	0	6.140859844868828E+001	-1.0819396E+000	-1.0822257E+000	-1.974910877729485E+000	-6.7649528E-002	11	2.1372992E-003	5.4798712E+002
2	0	0	0	6.160859844363586E+001	-1.0829396E+000	-1.0832423E+000	-1.990050988047983E+000	-6.8048008E-002	11	2.1557075E-003	5.4432892E+002
2	0	0	0	6.180859843858343E+001	-1.0839397E+000	-1.0842209E+000	-2.005406341939963E+000	-6.8449534E-002	11	2.1743034E-003	5.4064899E+002
2	0	0	0	6.200859843353101E+001	-1.0849396E+000	-1.0851929E+000	-2.022583470677701E+000	-6.8854317E-002	11	2.1948933E-003	5.3653802E+002
2	0	0	0	6.220859842847858E+001	-1.0859395E+000	-1.0862340E+000	-2.038362183352575E+000	-6.9262385E-002	11	2.2141382E-003	5.3289545E+002
2	0	0	0	6.240859842342616E+001	-1.0869395E+000	-1.0871849E+000	-2.058066835749443E+000	-6.9674119E-002	11	2.2374992E-003	5.2825537E+002
2	0	0	0	6.260859841837373E+001	-1.0879394E+000	-1.0882460E+000	-2.075654725605395E+000	-7.0089474E-002	11	2.2588230E-003	5.2429047E+002
2	0	0	0	6.280859841332131E+001	-1.0889394E+000	-1.0892328E+000	-2.095772449239718E+000	-7.0508637E-002	11	2.2827841E-003	5.1972858E+002
2	0	0	0	6.300859840826888E+001	-1.0899395E+000	-1.0902315E+000	-2.114055793081960E+000	-7.0931673E-002	11	2.3048103E-003	5.1570612E+002
2	0	0	0	6.320859840321646E+001	-1.0909394E+000	-1.0912588E+000	-2.133361330226296E+000	-7.1358420E-002	11	2.3280492E-003	5.1152084E+002
2	0	0	0	6.340859839816403E+001	-1.0919394E+000	-1.0921948E+000	-2.154592009476655E+000	-7.1789242E-002	11	2.3532342E-003	5.0691489E+002
2	0	0	0	6.360859839311161E+001	-1.0929394E+000	-1.0932220E+000	-2.176973982935863E+000	-7.2224401E-002	11	2.3799159E-003	5.0217505E+002
2	0	0	0	6.380859838805918E+001	-1.0939393E+000	-1.0942059E+000	-2.198313679013932E+000	-7.2663955E-002	11	2.4054076E-003	4.9774783E+002
2	0	0	0	6.400859838300676E+001	-1.0949394E+000	-1.0952287E+000	-2.222053300648456E+000	-7.3108025E-002	11	2.4336565E-003	4.9289038E+002
2	0	0	0	6.420859837795433E+001	-1.0959394E+000	-1.0961955E+000	-2.265500842494358E+000	-7.3558673E-002	11	2.4834317E-003	4.8386450E+002
2	0	0	0	6.440859837290191E+001	-1.0969393E+000	-1.0972196E+000	-2.294542481653941E+000	-7.4016847E-002	11	2.5176168E-003	4.7818665E+002
2	0	0	0	6.460859836784948E+001	-1.0979393E+000	-1.0982447E+000	-2.318920881873897E+000	-7.4480228E-002	11	2.5467426E-003	4.7360162E+002
2	0	0	0	6.480859836279706E+001	-1.0989392E+000	-1.0991987E+000	-2.342287052904254E+000	-7.4948408E-002	11	2.5746389E-003	4.6928436E+002
2	0	0	0	6.500859835774463E+001	-1.0999392E+000	-1.1001900E+000	-2.366739548945507E+000	-7.5421408E-002	11	2.6038634E-003	4.6485471E+002
2	0	0	0	6.520859835269221E+001	-1.1009392E+000	-1.1012055E+000	-2.392627741474145E+000	-7.5899415E-002	11	2.6347747E-003	4.6024939E+002
2	0	0	0	6.540859834763978E+001	-1.1019392E+000	-1.1022285E+000	-2.417459702934400E+000	-7.6382503E-002	11	2.6645930E-003	4.5594495E+002
2	0	0	0	6.560859834258736E+001	-1.1029392E+000	-1.1032273E+000	-2.443047045580104E+000	-7.6870643E-002	11	2.6952361E-003	4.5157840E+002
2	0	0	0	6.580859833753493E+001	-1.1039392E+000	-1.1042395E+000	-2.468368565988911E+000	-7.7363871E-002	11	2.7256699E-003	4.4735599E+002
2	0	0	0	6.600859833248251E+001	-1.1049391E+000	-1.1051884E+000	-2.493776111105401E+000	-7.7862196E-002	11	2.7560925E-003	4.4317868E+002
2	0	0	1	6.620849832743261E+001	-1.1059387E+000	-1.1062130E+000	-2.520712346528098E+000	-7.8365482E-002	11	2.7884447E-003	4.3884933E+002
2	0	0	1	6.640859832237766E+001	-1.1069393E+000	-1.1071986E+000	-2.546369602786505E+000	-7.8874528E-002	11	2.8193370E-003	4.3481458E+002
2	0	0	1	6.660849831732776E+001	-1.1079391E+000	-1.1082255E+000	-2.573556209856562E+000	-7.9388395E-002	11	2.8520806E-003	4.3062027E+002
2	0	0	1	6.680849831227533E+001	-1.1089393E+000	-1.1091967E+000	-2.600377277288370E+000	-7.9907916E-002	11	2.8843298E-003	4.2655222E+002
2	0	0	1	6.700849830722291E+001	-1.1099395E+000	-1.1102039E+000	-2.627620886614636E+000	-8.0432802E-002	11	2.9171950E-003	4.2251294E+002
2	0	0	1	6.720839830217301E+001	-1.1109389E+000	-1.1112266E+000	-2.655463192704850E+000	-8.0962963E-002	11	2.9508213E-003	4.1846808E+002
2	0	0	1	6.740839829712058E+001	-1.1119390E+000	-1.1121954E+000	-2.682290335057003E+000	-8.1498861E-002	11	2.9832309E-003	4.1464392E+002
2	0	0	1	6.760839829206816E+001	-1.1129390E+000	-1.1132206E+000	-2.707787450022835E+000	-8.2039967E-002	11	3.0143647E-003	4.1111816E+002
2	0	0	1	6.780839828701573E+001	-1.1139389E+000	-1.1141990E+000	-2.735085496286144E+000	-8.2586341E-002	11	3.0474297E-003	4.0737265E+002
2	0	0	1	6.800839828196331E+001	-1.1149389E+000	-1.1151605E+000	-2.760749551680892E+000	-8.3138034E-002	11	3.0786789E-003	4.0393396E+002
2	0	0	1	6.820839827691088E+001	-1.1159389E+000	-1.1162195E+000	-2.787929273482879E+000	-8.3695047E-002	11	3.1119410E-003	4.0037582E+002
2	0	0	1	6.840839827185846E+001	-1.1169388E+000	-1.1172552E+000	-2.814029025990951E+000	-8.4257327E-002	11	3.1439885E-003	3.9703046E+002
2	0	0	1	6.860839826680603E+001	-1.1179388E+000	-1.1182114E+000	-2.839568918051363E+000	-8.4824815E-002	11	3.1752384E-003	3.9379617E+002
2	0	0	1	6.880839826175361E+001	-1.1189388E+000	-1.1191943E+000	-2.864775099586751E+000	-8.5397378E-002	11	3.2062398E-003	3.9067438E+002
2	0	0	1	6.900839825670118E+001	-1.1199387E+000	-1.1202352E+000	-2.889377448665591E+000	-8.5974909E-002	11	3.2367823E-003	3.8770816E+002
2	0	0	1	6.920839825164876E+001	-1.1209388E+000	-1.1212614E+000	-2.915731113378712E+000	-8.6557567E-002	11	3.2692966E-003	3.8455582E+002
2	0	0	1	6.940839824659633E+001	-1.1219387E+000	-1.1221687E+000	-2.940666910742420E+000	-8.7145329E-002	11	3.2999243E-003	3.8160345E+002
2	0	0	1	6.960839824154391E+001	-1.1229388E+000	-1.1232351E+000	-2.964283003946948E+000	-8.7737940E-002	11	3.3295867E-003	3.7892303E+002
2	0	0	1	6.980839823649148E+001	-1.1239387E+000	-1.1242168E+000	-2.986717525320529E+000	-8.8335164E-002	11	3.3577180E-003	3.7640546E+002
2	0	0	1	7.000839823143906E+001	-1.1249387E+000	-1.1251848E+000	-3.009945468364656E+000	-8.8936962E-002	11	3.3867448E-003	3.7382233E+002
2	0	0	1	7.020839822638663E+001	-1.1259388E+000	-1.1262183E+000	-3.033441616784010E+000	-8.9543439E-002	11	3.4163175E-003	3.7126752E+002
2	0	0	1	7.040839822133421E+001	-1.1269386E+000	-1.1272943E+000	-3.061747653633681E+000	-9.0155244E-002	11	3.4514908E-003	3.6818655E+002
2	0	0	1	7.060839821628178E+001	-1.1279385E+000	-1.1283045E+000	-3.083755261233060E+000	-9.0771951E-002	11	3.4794149E-003	3.6588651E+002
2	0	0	1	7.080839821122936E+001	-1.1289386E+000	-1.1292374E+000	-3.104605081180729E+000	-9.1392934E-002	11	3.5058362E-003	3.6372980E+002
2	0	0	1	7.100839820617693E+001	-1.1299385E+000	-1.1302159E+000	-3.127244696291386E+000	-9.2018247E-002	11	3.5344616E-003	3.6140948E+002
2	0	0	1	7.120839820112451E+001	-1.1309385E+000	-1.1312282E+000	-3.147991454249883E+000	-9.2647903E-002	11	3.5610967E-003	3.5934921E+002
2	0	0	1	7.140839819607208E+001	-1.1319386E+000	-1.1322194E+000	-3.168214437270933E+000	-9.3281671E-002	11	3.5871139E-003	3.5736832E+002
2	0	0	1	7.160839819101966E+001	-1.1329385E+000	-1.1332573E+000	-3.190078569445227E+000	-9.3919665E-002	11	3.6151798E-003	3.5524432E+002
2	0	0	1	7.180839818596723E+001	-1.1339384E+000	-1.1342717E+000	-3.209288620894734E+000	-9.4561756E-002	11	3.6402054E-003	3.5343402E+002
2	0	0	1	7.200839818091481E+001	-1.1349384E+000	-1.1352811E+000	-3.231065405908623E+000	-9.5207922E-002	11	3.6681674E-003	3.5136432E+002
2	0	0	1	7.220839817586239E+001	-1.1359383E+000	-1.1362456E+000	-3.253054492766893E+000	-9.5858522E-002	11	3.6962689E-003	3.4928577E+002
2	0	0	1	7.240839817080996E+001	-1.1369385E+000	-1.1372696E+000	-3.271964943733337E+000	-9.6513160E-002	11	3.7211063E-003	3.4758002E+002
2	0	0	1	7.260839816575754E+001	-1.1379385E+000	-1.1382599E+000	-3.290380642493844E+000	-9.7171515E-002	11	3.7453084E-003	3.4593564E+002
2	0	0	1	7.280839816070511E+001	-1.1389384E+000	-1.1392149E+000	-3.307589687592866E+000	-9.7833432E-002	11	3.7680555E-003	3.4442450E+002
2	0	0	1	7.300839815565269E+001	-1.1399384E+000	-1.1402348E+000	-3.325076749197741E+000	-9.8498859E-002	11	3.7913683E-003	3.4291986E+002
2	0	0	1	7.320839815060026E+001	-1.1409383E+000	-1.1412418E+000	-3.342396835148200E+000	-9.9167727E-002	11	3.8144828E-003	3.4144412E+002
2	0	0	1	7.340839814554784E+001	-1.1419382E+000	-1.1422341E+000	-3.358770029547536E+000	-9.9840015E-002	11	3.8365016E-003	3.4007510E+002
2	0	0	1	7.360839814049541E+001	-1.1429383E+000	-1.1432412E+000	-3.375860914858291E+000	-1.0051563E-001	11	3.8594231E-003	3.3865173E+002
2	0	0	1	7.380839813544299E+001	-1.1439383E+000	-1.1442493E+000	-3.391664316898847E+000	-1.0119446E-001	11	3.8809096E-003	3.3737103E+002
2	0	0	1	7.400839813039056E+001	-1.1449382E+000	-1.1452224E+000	-3.418073752096731E+000	-1.0187745E-001	11	3.9144545E-003	3.3504907E+002
2	0	0	1	7.420839812533814E+001	-1.1459382E+000	-1.1461904E+000	-3.434592685157483E+000	-1.0256484E-001	11	3.9366973E-003	3.3371945E+002
2	0	0	1	7.440839812028571E+001	-1.1469382E+000	-1.1472526E+000	-3.450112700293403E+000	-1.0325541E-001	11	3.9581507E-003	3.3252612E+002
2	0	0	1	7.460839811523329E+001	-1.1479380E+000	-1.1482331E+000	-3.472905817722506E+000	-1.0394983E-001	11	3.9877053E-003	3.3062604E+002
2	0	0	1	7.480839811018086E+001	-1.1489381E+000	-1.1492646E+000	-3.493764293639842E+000	-1.0464870E-001	11	4.0152594E-003	3.2894736E+002
2	0	0	1	7.500839810512844E+001	-1.1499382E+000	-1.1502324E+000	-3.522111960346756E+000	-1.0535231E-001	11	4.0512476E-003	3.2657465E+002
2	0	0	1	7.520829810007854E+001	-1.1509379E+000	-1.1513008E+000	-3.546856896318932E+000	-1.0606103E-001	11	4.0834993E-003	3.2459747E+002
2	0	0	1	7.540839809502359E+001	-1.1519383E+000	-1.1522216E+000	-3.564591981641058E+000	-1.0677470E-001	11	4.1071996E-003	3.2324081E+002
2	0	0	1	7.560829808997369E+001	-1.1529382E+000	-1.1532412E+000	-3.581696128105293E+000	-1.0749111E-001	11	4.1305595E-003	3.2198184E+002
2	0	0	1	7.580829808492126E+001	-1.1539384E+000	-1.1542283E+000	-3.597882729796986E+000	-1.0821117E-001	11	4.1527781E-003	3.2080765E+002
2	0	0	0	7.600819807987136E+001	-1.1549380E+000	-1.1551937E+000	-3.637237198543858E+000	-1.0893636E-001	11	4.2017135E-003	3.1760196E+002
2	0	0	0	7.620819807481894E+001	-1.1559380E+000	-1.1562569E+000	-3.652550308511096E+000	-1.0966750E-001	11	4.2232866E-003	3.1656152E+002
2	0	0	0	7.640819806976651E+001	-1.1569380E+000	-1.1572629E+000	-3.670744267585889E+000	-1.1040193E-001	11	4.2480160E-003	3.1526657E+002
2	0	0	0	7.660819806471409E+001	-1.1579379E+000	-1.1582509E+000	-3.686248203726841E+000	-1.1113969E-001	11	4.2696004E-003	3.1420862E+002
2	0	0	0	7.680819805966166E+001	-1.1589378E+000	-1.1592634E+000	-3.702897635582062E+000	-1.1188071E-001	11	4.2926334E-003	3.1306924E+002
2	0	0	0	7.700819805460924E+001	-1.1599379E+000	-1.1601995E+000	-3.721611855150357E+000	-1.1262523E-001	11	4.3178122E-003	3.1174652E+002
2	0	0	0	7.720819804955681E+001	-1.1609378E+000	-1.1612149E+000	-3.738648379436970E+000	-1.1337339E-001	11	4.3413742E-003	3.1059753E+002
2	0	0	0	7.740819804450439E+001	-1.1619378E+000	-1.1622962E+000	-3.754719435154975E+000	-1.1412484E-001	11	4.3640961E-003	3.0955606E+002
2	0	0	0	7.760819803945196E+001	-1.1629378E+000	-1.1632609E+000	-3.771926104819705E+000	-1.1487961E-001	11	4.3877345E-003	3.0839972E+002
2	0	0	0	7.780819803439954E+001	-1.1639378E+000	-1.1642425E+000	-3.788393073104952E+000	-1.1563775E-001	11	4.4106082E-003	3.0731830E+002
2	0	0	0	7.800819802934711E+001	-1.1649377E+000	-1.1652316E+000	-3.806701035760426E+000	-1.1639936E-001	11	4.4356883E-003	3.0610010E+002
2	0	0	0	7.820819802429469E+001	-1.1659378E+000	-1.1661963E+000	-3.828335425953739E+000	-1.1716498E-001	11	4.4645909E-003	3.0462231E+002
2	0	0	0	7.840819801924226E+001	-1.1669378E+000	-1.1672374E+000	-3.847729263696266E+000	-1.1793469E-001	11	4.4912137E-003	3.0335745E+002
2	0	0	0	7.860819801418984E+001	-1.1679378E+000	-1.1682231E+000	-3.865339835856524E+000	-1.1870809E-001	11	4.5155794E-003	3.0223038E+002
2	0	0	0	7.880819800913741E+001	-1.1689376E+000	-1.1692524E+000	-3.884675707913036E+000	-1.1948521E-001	11	4.5421664E-003	3.0099100E+002
2	0	0	0	7.900819800408499E+001	-1.1699376E+000	-1.1702225E+000	-3.905417765214054E+000	-1.2026628E-001	11	4.5702080E-003	2.9964081E+002
2	0	0	0	7.920819799903256E+001	-1.1709375E+000	-1.1712210E+000	-3.924517314078614E+000	-1.2105131E-001	11	4.5964774E-003	2.9843695E+002
2	0	0	0	7.940819799398014E+001	-1.1719376E+000	-1.1722122E+000	-3.951167882468710E+000	-1.2184098E-001	11	4.6316073E-003	2.9667487E+002
2	0	0	0	7.960819798892771E+001	-1.1729375E+000	-1.1732142E+000	-3.974630716334936E+000	-1.2263572E-001	11	4.6630930E-003	2.9517566E+002
2	0	0	0	7.980819798387529E+001	-1.1739376E+000	-1.1741915E+000	-3.994127605372270E+000	-1.2343463E-001	11	4.6898704E-003	2.9397946E+002
2	0	0	0	8.000819797882286E+001	-1.1749375E+000	-1.1752570E+000	-4.015388335162541E+000	-1.2423765E-001	11	4.7191130E-003	2.9268823E+002
2	0	0	0	8.020819797377044E+001	-1.1759374E+000	-1.1762575E+000	-4.038292829682206E+000	-1.2504505E-001	11	4.7500720E-003	2.9127594E+002
2	0	0	0	8.040819796871801E+001	-1.1769375E+000	-1.1772392E+000	-4.061680954769088E+000	-1.2585711E-001	11	4.7815698E-003	2.8984039E+002
2	0	0	0	8.060819796366559E+001	-1.1779375E+000	-1.1782475E+000	-4.085682057604515E+000	-1.2667386E-001	11	4.8139445E-003	2.8838452E+002
2	0	0	0	8.080819795861316E+001	-1.1789376E+000	-1.1792185E+000	-4.109498091869874E+000	-1.2749539E-001	11	4.8459964E-003	2.8694952E+002
2	0	0	0	8.100819795356074E+001	-1.1799375E+000	-1.1802298E+000	-4.141150309757037E+000	-1.2832254E-001	11	4.8875092E-003	2.8500046E+002
2	0	0	0	8.120819794850831E+001	-1.1809374E+000	-1.1812602E+000	-4.172533828790492E+000	-1.2915595E-001	11	4.9288482E-003	2.8310382E+002
2	0	0	0	8.140819794345589E+001	-1.1819373E+000	-1.1822598E+000	-4.224982703049701E+000	-1.2999782E-001	11	4.9950271E-003	2.7982596E+002
2	0	0	0	8.160819793840346E+001	-1.1829373E+000	-1.1832350E+000	-4.272731811044697E+000	-1.3085033E-001	11	5.0556459E-003	2.7692706E+002
2	0	0	0	8.180819793335104E+001	-1.1839373E+000	-1.1841892E+000	-4.295883730526967E+000	-1.3170916E-001	11	5.0871391E-003	2.7565671E+002
2	0	0	0	8.200819792829861E+001	-1.1849374E+000	-1.1852143E+000	-4.322246540464520E+000	-1.3257299E-001	11	5.1227883E-003	2.7421255E+002
2	0	0	0	8.220819792324619E+001	-1.1859373E+000	-1.1862212E+000	-4.350392250956567E+000	-1.3344233E-001	11	5.1605278E-003	2.7266995E+002
2	0	0	0	8.240819791819376E+001	-1.1869373E+000	-1.1872348E+000	-4.379236088487019E+000	-1.3431735E-001	11	5.1991814E-003	2.7110544E+002
2	0	0	0	8.260819791314134E+001	-1.1879373E+000	-1.1881835E+000	-4.410352265213074E+000	-1.3519831E-001	11	5.2403081E-003	2.6940787E+002
2	0	0	0	8.280819790808891E+001	-1.1889371E+000	-1.1891885E+000	-4.450207248870758E+000	-1.3608649E-001	11	5.2921353E-003	2.6722092E+002
2	0	0	0	8.300819790303649E+001	-1.1899371E+000	-1.1902392E+000	-4.487133115394862E+000	-1.3698229E-001	11	5.3407615E-003	2.6525604E+002
2	0	0	0	8.320819789798406E+001	-1.1909373E+000	-1.1912240E+000	-4.520777096148237E+000	-1.3788515E-001	11	5.3852582E-003	2.6349982E+002
2	0	0	0	8.340819789293164E+001	-1.1919372E+000	-1.1922108E+000	-4.561486851702725E+000	-1.3879544E-001	11	5.4382537E-003	2.6136450E+002
2	0	0	0	8.360819788787921E+001	-1.1929371E+000	-1.1931902E+000	-4.595851819497661E+000	-1.3971318E-001	11	5.4837256E-003	2.5962329E+002
2	0	0	0	8.380819788282679E+001	-1.1939371E+000	-1.1942302E+000	-4.638061930769695E+000	-1.4063853E-001	11	5.5389134E-003	2.5748474E+002
2	0	0	1	8.400819787777436E+001	-1.1949371E+000	-1.1952301E+000	-4.694808559177773E+000	-1.4157395E-001	11	5.6113768E-003	2.5458549E+002
2	0	0	1	8.420809787272447E+001	-1.1959370E+000	-1.1962212E+000	-4.759822780638366E+000	-1.4252131E-001	11	5.6938012E-003	2.5131635E+002
2	0	0	1	8.440819786766951E+001	-1.1969373E+000	-1.1972106E+000	-4.796496314790595E+000	-1.4347938E-001	11	5.7424158E-003	2.4960106E+002
2	0	0	1	8.460799786262214E+001	-1.1979369E+000	-1.1982098E+000	-4.838375246166265E+000	-1.4444399E-001	11	5.7973885E-003	2.4764714E+002
2	0	0	1	8.480799785756972E+001	-1.1989369E+000	-1.1992031E+000	-4.873958909964330E+000	-1.4541718E-001	11	5.8448669E-003	2.4604292E+002
2	0	0	1	8.500799785251729E+001	-1.1999370E+000	-1.2001784E+000	-4.921171271679356E+000	-1.4639868E-001	11	5.9062834E-003	2.4388063E+002
2	0	0	1	8.520799784746487E+001	-1.2009369E+000	-1.2012131E+000	-4.967548262167398E+000	-1.4738964E-001	11	5.9670843E-003	2.4181207E+002
2	0	0	1	8.540799784241244E+001	-1.2019368E+000	-1.2022223E+000	-5.000930328521857E+000	-1.4838842E-001	11	6.0122302E-003	2.4039973E+002
2	0	0	1	8.560799783736002E+001	-1.2029369E+000	-1.2032230E+000	-5.053759679907849E+000	-1.4939578E-001	11	6.0807997E-003	2.3808473E+002
2	0	0	1	8.580799783230759E+001	-1.2039368E+000	-1.2041687E+000	-5.142785933485371E+000	-1.5041751E-001	11	6.1927820E-003	2.3414716E+002
2	0	0	1	8.600799782725517E+001	-1.2049369E+000	-1.2052341E+000	-5.185814248900556E+000	-1.5145238E-001	11	6.2501198E-003	2.3240981E+002
2	0	0	1	8.620799782220274E+001	-1.2059368E+000	-1.2062538E+000	-5.232937176650623E+000	-1.5249623E-001	11	6.3122502E-003	2.3051180E+002
2	0	0	1	8.640799781715032E+001	-1.2069368E+000	-1.2072365E+000	-5.276902212003189E+000	-1.5354924E-001	11	6.3704690E-003	2.2877751E+002
2	0	0	1	8.660799781209789E+001	-1.2079369E+000	-1.2082001E+000	-5.328019073186546E+000	-1.5461166E-001	11	6.4373133E-003	2.2676347E+002
2	0	0	1	8.680799780704547E+001	-1.2089368E+000	-1.2092052E+000	-5.377678366745416E+000	-1.5568443E-001	11	6.5027163E-003	2.2485635E+002
2	0	0	1	8.700799780199304E+001	-1.2099366E+000	-1.2102408E+000	-5.429304051020793E+000	-1.5676713E-001	11	6.5707653E-003	2.2290901E+002
2	0	0	1	8.720799779694062E+001	-1.2109367E+000	-1.2112733E+000	-5.524143700764568E+000	-1.5786423E-001	11	6.6912477E-003	2.1926897E+002
2	0	0	1	8.740799779188819E+001	-1.2119366E+000	-1.2122612E+000	-5.584254469325529E+000	-1.5897718E-001	11	6.7695752E-003	2.1708560E+002
2	0	0	1	8.760799778683577E+001	-1.2129366E+000	-1.2132461E+000	-5.637445699803720E+000	-1.6010137E-001	11	6.8396092E-003	2.1521202E+002
2	0	0	1	8.780799778178334E+001	-1.2139366E+000	-1.2142246E+000	-5.685964894233905E+000	-1.6123565E-001	11	6.9040381E-003	2.1354767E+002
2	0	0	1	8.800799777673092E+001	-1.2149366E+000	-1.2152073E+000	-5.809118461615668E+000	-1.6238682E-001	11	7.0592836E-003	2.0918964E+002
2	0	0	1	8.820799777167849E+001	-1.2159367E+000	-1.2162473E+000	-5.841559642059991E+000	-1.6355421E-001	11	7.1047815E-003	2.0820592E+002
2	0	0	1	8.840799776662607E+001	-1.2169365E+000	-1.2172300E+000	-5.929427772794199E+000	-1.6473313E-001	11	7.2174771E-003	2.0528624E+002
2	0	0	1	8.860799776157364E+001	-1.2179365E+000	-1.2182572E+000	-6.004417722288693E+000	-1.6592902E-001	11	7.3149251E-003	2.0289348E+002
2	0	0	1	8.880799775652122E+001	-1.2189366E+000	-1.2192281E+000	-6.077881281236667E+000	-1.6713956E-001	11	7.4103237E-003	2.0060085E+002
2	0	0	1	8.900799775146879E+001	-1.2199366E+000	-1.2202448E+000	-6.141275189293225E+000	-1.6836351E-001	11	7.4938587E-003	1.9869566E+002
2	0	0	1	8.920799774641637E+001	-1.2209365E+000	-1.2212255E+000	-6.182560164168848E+000	-1.6959797E-001	11	7.5503001E-003	1.9752748E+002
2	0	0	1	8.940799774136394E+001	-1.2219365E+000	-1.2222239E+000	-6.284674835414592E+000	-1.7084634E-001	11	7.6812794E-003	1.9447687E+002
2	0	0	1	8.960799773631152E+001	-1.2229364E+000	-1.2231929E+000	-6.381563758093229E+000	-1.7211516E-001	11	7.8058839E-003	1.9167606E+002
2	0	0	1	8.980799773125909E+001	-1.2239363E+000	-1.2242075E+000	-6.440267945025248E+000	-1.7339936E-001	11	7.8842249E-003	1.9008643E+002
2	0	0	1	9.000799772620667E+001	-1.2249364E+000	-1.2252442E+000	-6.507383980786173E+000	-1.7469631E-001	11	7.9731345E-003	1.8828522E+002
2	0	0	1	9.020799772115424E+001	-1.2259364E+000	-1.2262057E+000	-6.576054726193007E+000	-1.7600678E-001	11	8.0635957E-003	1.8646526E+002
2	0	0	1	9.040799771610182E+001	-1.2269363E+000	-1.2271969E+000	-6.685473953042177E+000	-1.7733470E-001	11	8.2043931E-003	1.8356169E+002
2	0	0	1	9.060799771104939E+001	-1.2279364E+000	-1.2282516E+000	-6.782409480639899E+000	-1.7868389E-001	11	8.3305053E-003	1.8109369E+002
2	0	0	1	9.080799770599697E+001	-1.2289363E+000	-1.2291973E+000	-6.861115884821405E+000	-1.8005027E-001	11	8.4336651E-003	1.7915413E+002
2	0	0	1	9.100799770094454E+001	-1.2299361E+000	-1.2302403E+000	-6.948222745911067E+000	-1.8143350E-001	11	8.5479841E-003	1.7705827E+002
2	0	0	1	9.120799769589212E+001	-1.2309362E+000	-1.2312357E+000	-7.019026552603663E+000	-1.8283227E-001	11	8.6420765E-003	1.7541403E+002
2	0	0	1	9.140799769083969E+001	-1.2319363E+000	-1.2322345E+000	-7.162329151516854E+000	-1.8425232E-001	11	8.8256691E-003	1.7204382E+002
2	0	0	1	9.160799768578727E+001	-1.2329363E+000	-1.2332160E+000	-7.236532341731149E+000	-1.8569441E-001	11	8.9242077E-003	1.7041533E+002
2	0	0	1	9.180799768073484E+001	-1.2339362E+000	-1.2342485E+000	-7.311568810015295E+000	-1.8715130E-001	11	9.0242932E-003	1.6880762E+002
2	0	0	1	9.200799767568242E+001	-1.2349361E+000	-1.2352483E+000	-7.391416147520189E+000	-1.8862373E-001	11	9.1302348E-003	1.6711931E+002
2	0	0	1	9.220799767062999E+001	-1.2359362E+000	-1.2362425E+000	-7.503593539502361E+000	-1.9011518E-001	11	9.2762616E-003	1.6475340E+002
2	0	0	1	9.240799766557757E+001	-1.2369361E+000	-1.2372348E+000	-7.646385705998167E+000	-1.9163305E-001	11	9.4603747E-003	1.6180649E+002
2	0	0	1	9.260799766052514E+001	-1.2379361E+000	-1.2382410E+000	-7.715015158158565E+000	-1.9317128E-001	11	9.5530478E-003	1.6049754E+002
2	0	0	1	9.280799765547272E+001	-1.2389362E+000	-1.2392226E+000	-7.800674921448034E+000	-1.9472490E-001	11	9.6667726E-003	1.5886095E+002
2	0	0	1	9.300799765042029E+001	-1.2399361E+000	-1.2402509E+000	-7.890785517359461E+000	-1.9629616E-001	11	9.7865546E-003	1.5717712E+002
2	0	0	1	9.320779764537292E+001	-1.2409358E+000	-1.2411982E+000	-8.034239763276867E+000	-1.9788991E-001	11	9.9720834E-003	1.5448857E+002
2	0	0	1	9.340789764031797E+001	-1.2419360E+000	-1.2421865E+000	-8.127697891435886E+000	-1.9950914E-001	11	1.0096117E-002	1.5283376E+002
2	0	0	1	9.360779763526807E+001	-1.2429359E+000	-1.2432327E+000	-8.210177194242277E+000	-2.0114432E-001	11	1.0207161E-002	1.5142581E+002
2	0	0	1	9.380779763021565E+001	-1.2439359E+000	-1.2442410E+000	-8.318362001529792E+000	-2.0279931E-001	11	1.0350047E-002	1.4957765E+002
2	0	0	0	9.400779762516322E+001	-1.2449359E+000	-1.2452470E+000	-8.444779248261867E+000	-2.0447843E-001	11	1.0515836E-002	1.4745761E+002
2	0	0	0	9.420779762011080E+001	-1.2459359E+000	-1.2462361E+000	-8.539375223945868E+000	-2.0617899E-001	11	1.0642078E-002	1.4593996E+002
2	0	0	0	9.440779761505837E+001	-1.2469360E+000	-1.2471870E+000	-8.629784621889627E+000	-2.0789814E-001	11	1.0762955E-002	1.4452122E+002
2	0	0	0	9.460779761000595E+001	-1.2479359E+000	-1.2481961E+000	-8.818325243501718E+000	-2.0964509E-001	11	1.1007000E-002	1.4154572E+002
2	0	0	0	9.480779760495352E+001	-1.2489359E+000	-1.2492700E+000	-8.930259696885823E+000	-2.1142229E-001	11	1.1156305E-002	1.3989178E+002
2	0	0	0	9.500779759990110E+001	-1.2499359E+000	-1.2502581E+000	-9.048237870407213E+000	-2.1322227E-001	11	1.1312633E-002	1.3817697E+002
2	0	0	0	9.520779759484867E+001	-1.2509359E+000	-1.2512143E+000	-9.166159674153569E+000	-2.1504571E-001	11	1.1468830E-002	1.3650365E+002
2	0	0	0	9.540779758979625E+001	-1.2519357E+000	-1.2522510E+000	-9.293747871168087E+000	-2.1689445E-001	11	1.1638105E-002	1.3474123E+002
2	0	0	0	9.560779758474382E+001	-1.2529358E+000	-1.2532518E+000	-9.387686631509233E+000	-2.1876471E-001	11	1.1765135E-002	1.3349953E+002
2	0	0	0	9.580779757969140E+001	-1.2539357E+000	-1.2542567E+000	-9.511054033730314E+000	-2.2065659E-001	11	1.1929303E-002	1.3187358E+002
2	0	0	0	9.600779757463897E+001	-1.2549357E+000	-1.2552321E+000	-9.720109928762536E+000	-2.2258306E-001	11	1.2200994E-002	1.2913765E+002
2	0	0	0	9.620779756958655E+001	-1.2559357E+000	-1.2562221E+000	-9.812005117028740E+000	-2.2453821E-001	11	1.2326058E-002	1.2802910E+002
2	0	0	0	9.640779756453412E+001	-1.2569357E+000	-1.2571963E+000	-9.904878940982343E+000	-2.2651222E-001	11	1.2452377E-002	1.2692697E+002
2	0	0	0	9.660779755948170E+001	-1.2579356E+000	-1.2582470E+000	-1.006400555196532E+001	-2.2851071E-001	11	1.2663005E-002	1.2502448E+002
2	0	0	0	9.680779755442927E+001	-1.2589357E+000	-1.2591957E+000	-1.018033691436522E+001	-2.3053800E-001	11	1.2819036E-002	1.2368900E+002
2	0	0	0	9.700779754937685E+001	-1.2599356E+000	-1.2602080E+000	-1.027381147177310E+001	-2.3258562E-001	11	1.2947139E-002	1.2266217E+002
2	0	0	0	9.720779754432442E+001	-1.2609357E+000	-1.2612034E+000	-1.045826372233924E+001	-2.3466057E-001	11	1.3189998E-002	1.2059396E+002
2	0	0	0	9.740779753927200E+001	-1.2619357E+000	-1.2622339E+000	-1.058477611356579E+001	-2.3676768E-001	11	1.3360463E-002	1.1924993E+002
2	0	0	0	9.760779753421957E+001	-1.2629356E+000	-1.2632123E+000	-1.066875757598012E+001	-2.3889583E-001	11	1.3476906E-002	1.1840295E+002
2	0	0	0	9.780779752916715E+001	-1.2639354E+000	-1.2642173E+000	-1.083583825995593E+001	-2.4104759E-001	11	1.3698854E-002	1.1667000E+002
2	0	0	0	9.802779752360948E+001	-1.2650355E+000	-1.2653430E+000	-1.097138278502408E+001	-2.4345103E-001	11	1.3882562E-002	1.1533122E+002
2	0	0	0	9.824779751805181E+001	-1.2661355E+000	-1.2664318E+000	-1.110025212878271E+001	-2.4588110E-001	10	1.4057713E-002	1.1409036E+002
2	0	0	0	9.844779751299939E+001	-1.2671354E+000	-1.2674283E+000	-1.133656331531859E+001	-2.4812686E-001	10	1.4368281E-002	1.1180004E+002
2	0	0	0	9.864779750794696E+001	-1.2681354E+000	-1.2684035E+000	-1.147234436822317E+001	-2.5041074E-001	10	1.4551562E-002	1.1056184E+002
2	0	0	0	9.884779750289454E+001	-1.2691354E+000	-1.2694159E+000	-1.160886699272118E+001	-2.5272110E-001	10	1.4736480E-002	1.0934882E+002
2	0	0	0	9.904779749784211E+001	-1.2701354E+000	-1.2704135E+000	-1.190319967742954E+001	-2.5507569E-001	10	1.5121986E-002	1.0672874E+002
2	0	0	0	9.924779749278969E+001	-1.2711353E+000	-1.2714186E+000	-1.203741197919902E+001	-2.5747246E-001	10	1.5304589E-002	1.0562225E+002
2	0	0	0	9.944779748773726E+001	-1.2721354E+000	-1.2724563E+000	-1.215078639166424E+001	-2.5989395E-001	10	1.5461344E-002	1.0472214E+002
2	0	0	0	9.964779748268484E+001	-1.2731354E+000	-1.2734411E+000	-1.237161265540016E+001	-2.6234922E-001	10	1.5754519E-002	1.0293250E+002
2	0	0	0	9.984779747763241E+001	-1.2741354E+000	-1.2744409E+000	-1.247343105456184E+001	-2.6483625E-001	10	1.5896650E-002	1.0217244E+002
2	0	0	0	1.000477974725800E+002	-1.2751352E+000	-1.2754171E+000	-1.263412615325720E+001	-2.6734900E-001	10	1.6113780E-002	1.0095016E+002
2	0	0	0	1.002477974675276E+002	-1.2761352E+000	-1.2764592E+000	-1.280071352831089E+001	-2.6989567E-001	10	1.6339589E-002	9.9717819E+001
2	0	0	0	1.004477974624751E+002	-1.2771351E+000	-1.2774365E+000	-1.292130644021391E+001	-2.7247044E-001	10	1.6506149E-002	9.8862801E+001
2	0	0	0	1.006477974574227E+002	-1.2781352E+000	-1.2784172E+000	-1.316668406095096E+001	-2.7508131E-001	10	1.6832516E-002	9.7094849E+001
2	0	0	0	1.008477974523703E+002	-1.2791352E+000	-1.2794539E+000	-1.331391078977083E+001	-2.7773196E-001	10	1.7034534E-002	9.6099030E+001
2	0	0	0	1.010477974473179E+002	-1.2801352E+000	-1.2803890E+000	-1.346860627225198E+001	-2.8041211E-001	10	1.7245054E-002	9.5064697E+001
2	0	0	0	1.012477974422654E+002	-1.2811352E+000	-1.2814394E+000	-1.365591181824806E+001	-2.8312805E-001	10	1.7499223E-002	9.3837708E+001
2	0	0	0	1.014477974372130E+002	-1.2821351E+000	-1.2824094E+000	-1.376699674102457E+001	-2.8587276E-001	10	1.7654926E-002	9.3150993E+001
2	0	0	1	1.016477974321606E+002	-1.2831352E+000	-1.2834102E+000	-1.399873857199501E+001	-2.8865296E-001	10	1.7966123E-002	9.1680420E+001
2	0	0	1	1.018477974271082E+002	-1.2841353E+000	-1.2844080E+000	-1.411548689247863E+001	-2.9146686E-001	10	1.8130044E-002	9.0992821E+001
2	0	0	1	1.020476974220583E+002	-1.2851351E+000	-1.2853734E+000	-1.427230595854456E+001	-2.9430622E-001	10	1.8345242E-002	9.0060669E+001
2	0	0	1	1.022477974170033E+002	-1.2861356E+000	-1.2864065E+000	-1.444179369295924E+001	-2.9718220E-001	10	1.8578017E-002	8.9075256E+001
2	0	0	1	1.024475974119559E+002	-1.2871349E+000	-1.2874447E+000	-1.460570543036148E+001	-3.0008614E-001	10	1.8804038E-002	8.8146698E+001
2	0	0	1	1.026475974069035E+002	-1.2881349E+000	-1.2884307E+000	-1.484951734069796E+001	-3.0303520E-001	10	1.9132573E-002	8.6765831E+001
2	0	0	1	1.028475974018511E+002	-1.2891349E+000	-1.2894155E+000	-1.498896086770122E+001	-3.0602124E-001	10	1.9326998E-002	8.6024338E+001
2	0	0	1	1.030475973967987E+002	-1.2901349E+000	-1.2904184E+000	-1.517887382523541E+001	-3.0903944E-001	10	1.9587098E-002	8.5014107E+001
2	0	0	1	1.032475973917462E+002	-1.2911350E+000	-1.2914042E+000	-1.549275654013735E+001	-3.1210884E-001	10	2.0007411E-002	8.3355354E+001
2	0	0	1	1.034475973866938E+002	-1.2921350E+000	-1.2924241E+000	-1.575502353447084E+001	-3.1523660E-001	10	2.0362172E-002	8.2032509E+001
2	0	0	1	1.036475973816414E+002	-1.2931349E+000	-1.2934555E+000	-1.592241049840067E+001	-3.1840721E-001	10	2.0594928E-002	8.1234901E+001
2	0	0	1	1.038475973765890E+002	-1.2941349E+000	-1.2944298E+000	-1.612801899864019E+001	-3.2161415E-001	10	2.0876588E-002	8.0259689E+001
2	0	0	1	1.040475973715365E+002	-1.2951348E+000	-1.2953838E+000	-1.635705159270032E+001	-3.2486686E-001	10	2.1188660E-002	7.9194214E+001
2	0	0	1	1.042475973664841E+002	-1.2961347E+000	-1.2964163E+000	-1.653687042416902E+001	-3.2815838E-001	10	2.1438668E-002	7.8395500E+001
2	0	0	1	1.044475973614317E+002	-1.2971348E+000	-1.2973769E+000	-1.671853467842342E+001	-3.3148691E-001	10	2.1690240E-002	7.7601112E+001
2	0	0	1	1.046475973563793E+002	-1.2981348E+000	-1.2984104E+000	-1.691810815201859E+001	-3.3485234E-001	10	2.1966647E-002	7.6746788E+001
2	0	0	1	1.048475973513268E+002	-1.2991347E+000	-1.2994281E+000	-1.712462224981947E+001	-3.3826029E-001	10	2.2252215E-002	7.5880684E+001
2	0	0	1	1.050475973462744E+002	-1.3001347E+000	-1.3003831E+000	-1.731543518869780E+001	-3.4170645E-001	10	2.2516700E-002	7.5099648E+001
2	0	0	1	1.052475973412220E+002	-1.3011347E+000	-1.3013849E+000	-1.750892807283094E+001	-3.4519219E-001	10	2.2785855E-002	7.4326935E+001
2	0	0	1	1.054475973361696E+002	-1.3021346E+000	-1.3024347E+000	-1.775547432656198E+001	-3.4872112E-001	10	2.3125345E-002	7.3353981E+001
2	0	0	1	1.056475973311171E+002	-1.3031347E+000	-1.3034331E+000	-1.794774296224256E+001	-3.5229489E-001	10	2.3393681E-002	7.2623787E+001
2	0	0	1	1.058475973260647E+002	-1.3041347E+000	-1.3043892E+000	-1.814774691504411E+001	-3.5590601E-001	10	2.3671726E-002	7.1876099E+001
2	0	0	1	1.060475973210123E+002	-1.3051347E+000	-1.3053783E+000	-1.828593767851658E+001	-3.5955203E-001	10	2.3870066E-002	7.1387001E+001
2	0	0	1	1.062475973159599E+002	-1.3061346E+000	-1.3064299E+000	-1.853084393247724E+001	-3.6323598E-001	10	2.4209248E-002	7.0500290E+001
2	0	0	1	1.064475973109074E+002	-1.3071345E+000	-1.3074317E+000	-1.873287797041760E+001	-3.6696526E-001	10	2.4491958E-002	6.9793427E+001
2	0	0	1	1.066475973058550E+002	-1.3081344E+000	-1.3083912E+000	-1.910083024707242E+001	-3.7075162E-001	10	2.4991358E-002	6.8499184E+001
2	0	0	1	1.068475973008026E+002	-1.3091345E+000	-1.3094140E+000	-1.942004182360334E+001	-3.7460876E-001	10	2.5428874E-002	6.7425911E+001
2	0	0	1	1.070475972957502E+002	-1.3101344E+000	-1.3104200E+000	-1.965577677709977E+001	-3.7852025E-001	10	2.5757324E-002	6.6668442E+001
2	0	0	1	1.072475972906977E+002	-1.3111345E+000	-1.3114133E+000	-1.983565911454679E+001	-3.8247183E-001	10	2.6012747E-002	6.6113922E+001
2	0	0	1	1.074475972856453E+002	-1.3121344E+000	-1.3123951E+000	-2.004037515741356E+001	-3.8646293E-001	10	2.6300890E-002	6.5487549E+001
2	0	0	1	1.076475972805929E+002	-1.3131344E+000	-1.3134562E+000	-2.028418180920913E+001	-3.9049712E-001	10	2.6642384E-002	6.4752731E+001
2	0	0	1	1.078475972755405E+002	-1.3141344E+000	-1.3144071E+000	-2.048237071326531E+001	-3.9457676E-001	10	2.6922174E-002	6.4172607E+001
2	0	0	1	1.080475972704880E+002	-1.3151344E+000	-1.3154206E+000	-2.076836013793949E+001	-3.9870536E-001	10	2.7319130E-002	6.3337723E+001
2	0	0	1	1.082475972654356E+002	-1.3161345E+000	-1.3164265E+000	-2.096404079609718E+001	-4.0288153E-001	10	2.7597619E-002	6.2794502E+001
2	0	0	1	1.084475972603832E+002	-1.3171343E+000	-1.3174262E+000	-2.119848097181648E+001	-4.0710247E-001	10	2.7927434E-002	6.2147198E+001
2	0	0	1	1.086475972553308E+002	-1.3181343E+000	-1.3183898E+000	-2.143971216827282E+001	-4.1136810E-001	10	2.8265897E-002	6.1492886E+001
2	0	0	1	1.088475972502783E+002	-1.3191342E+000	-1.3194309E+000	-2.171429454820770E+001	-4.1568720E-001	10	2.8650513E-002	6.0763241E+001
2	0	0	1	1.090475972452259E+002	-1.3201343E+000	-1.3204093E+000	-2.205424712831473E+001	-4.2006844E-001	10	2.9120633E-002	5.9870975E+001
2	0	0	1	1.092475972401735E+002	-1.3211342E+000	-1.3214502E+000	-2.237811140395075E+001	-4.2451447E-001	10	2.9571561E-002	5.9051018E+001
2	0	0	1	1.094475972351211E+002	-1.3221343E+000	-1.3224680E+000	-2.264402314229892E+001	-4.2902064E-001	10	2.9945998E-002	5.8402523E+001
2	0	0	1	1.096475972300686E+002	-1.3231342E+000	-1.3234242E+000	-2.288228118622385E+001	-4.3357515E-001	10	3.0282965E-002	5.7836201E+001
2	0	0	1	1.098475972250162E+002	-1.3241342E+000	-1.3243941E+000	-2.311211354148637E+001	-4.3817791E-001	10	3.0609546E-002	5.7303028E+001
2	0	0	1	1.100475972199638E+002	-1.3251340E+000	-1.3254098E+000	-2.339165961918110E+001	-4.4283220E-001	10	3.1003535E-002	5.6661640E+001
2	0	0	1	1.102475972149114E+002	-1.3261341E+000	-1.3263841E+000	-2.368013010003396E+001	-4.4754162E-001	10	3.1408947E-002	5.6012531E+001
2	0	0	1	1.104475972098589E+002	-1.3271341E+000	-1.3274356E+000	-2.384172210320327E+001	-4.5229763E-001	10	3.1648353E-002	5.5677002E+001
2	0	0	1	1.106475972048065E+002	-1.3281343E+000	-1.3284279E+000	-2.409742400228862E+001	-4.5709562E-001	10	3.2011691E-002	5.5127384E+001
2	0	0	1	1.108475971997541E+002	-1.3291342E+000	-1.3294151E+000	-2.439206060956792E+001	-4.6194643E-001	10	3.2427173E-002	5.4501957E+001
2	0	0	1	1.110473971947067E+002	-1.3301337E+000	-1.3304161E+000	-2.486363181416888E+001	-4.6687263E-001	10	3.3078976E-002	5.3508518E+001
2	0	0	1	1.112474971896518E+002	-1.3311341E+000	-1.3314290E+000	-2.520670614793346E+001	-4.7188675E-001	10	3.3560939E-002	5.2820427E+001
2	0	0	0	1.114473971846019E+002	-1.3321340E+000	-1.3324444E+000	-2.543208284848390E+001	-4.7695109E-001	10	3.3886839E-002	5.2392265E+001
2	0	0	0	1.116473971795494E+002	-1.3331341E+000	-1.3334336E+000	-2.566550308506504E+001	-4.8206523E-001	10	3.4223244E-002	5.1954315E+001
2	0	0	0	1.118473971744970E+002	-1.3341340E+000	-1.3344353E+000	-2.594076695923366E+001	-4.8722962E-001	10	3.4616277E-002	5.1441631E+001
2	0	0	0	1.120473971694446E+002	-1.3351339E+000	-1.3354667E+000	-2.619704557654529E+001	-4.9244580E-001	10	3.4985282E-002	5.0977760E+001
2	0	0	0	1.122473971643922E+002	-1.3361338E+000	-1.3364992E+000	-2.646691823276012E+001	-4.9771699E-001	10	3.5373017E-002	5.0496971E+001
2	0	0	0	1.124473971593397E+002	-1.3371338E+000	-1.3374323E+000	-2.678031255166275E+001	-5.0304341E-001	10	3.5816856E-002	4.9940876E+001
2	0	0	0	1.126473971542873E+002	-1.3381338E+000	-1.3384553E+000	-2.698178986519099E+001	-5.0842291E-001	10	3.6113922E-002	4.9605877E+001
2	0	0	0	1.128473971492349E+002	-1.3391339E+000	-1.3394197E+000	-2.724461004928666E+001	-5.1384974E-001	10	3.6491968E-002	4.9162743E+001
2	0	0	0	1.130473971441825E+002	-1.3401338E+000	-1.3404100E+000	-2.772311407854775E+001	-5.1934850E-001	10	3.7160341E-002	4.8349907E+001
2	0	0	0	1.132473971391300E+002	-1.3411337E+000	-1.3414457E+000	-2.809201757329384E+001	-5.2493531E-001	10	3.7683915E-002	4.7751846E+001
2	0	0	0	1.134473971340776E+002	-1.3421338E+000	-1.3424093E+000	-2.839392594658602E+001	-5.3058898E-001	10	3.8116269E-002	4.7278042E+001
2	0	0	0	1.136473971290252E+002	-1.3431337E+000	-1.3434514E+000	-2.864796620729022E+001	-5.3629577E-001	10	3.8487151E-002	4.6895176E+001
2	0	0	0	1.138473971239728E+002	-1.3441337E+000	-1.3444245E+000	-2.887993003505699E+001	-5.4205239E-001	10	3.8826887E-002	4.6552208E+001
2	0	0	0	1.140473971189203E+002	-1.3451338E+000	-1.3453977E+000	-2.920701288636315E+001	-5.4786634E-001	10	3.9295048E-002	4.6064201E+001
2	0	0	0	1.142473971138679E+002	-1.3461337E+000	-1.3464069E+000	-2.950254170262087E+001	-5.5373865E-001	10	3.9722428E-002	4.5636982E+001
2	0	0	0	1.144473971088155E+002	-1.3471336E+000	-1.3474543E+000	-2.969301849860454E+001	-5.5966234E-001	10	4.0009987E-002	4.5379498E+001
2	0	0	0	1.146473971037631E+002	-1.3481336E+000	-1.3484137E+000	-3.003117094153436E+001	-5.6563926E-001	10	4.0494442E-002	4.4900471E+001
2	0	0	0	1.148473970987106E+002	-1.3491335E+000	-1.3494811E+000	-3.028111693134659E+001	-5.7167214E-001	10	4.0863793E-002	4.4565102E+001
2	0	0	0	1.150473970936582E+002	-1.3501335E+000	-1.3504734E+000	-3.076699905276575E+001	-5.7778084E-001	10	4.1550014E-002	4.3893570E+001
2	0	0	0	1.152473970886058E+002	-1.3511336E+000	-1.3514380E+000	-3.114522355727334E+001	-5.8397830E-001	10	4.2090841E-002	4.3391502E+001
2	0	0	0	1.154473970835534E+002	-1.3521335E+000	-1.3524452E+000	-3.149644794566819E+001	-5.9024465E-001	10	4.2597223E-002	4.2939613E+001
2	0	0	0	1.156473970785009E+002	-1.3531336E+000	-1.3534437E+000	-3.172796235981976E+001	-5.9657079E-001	10	4.2942014E-002	4.2657757E+001
2	0	0	0	1.158473970734485E+002	-1.3541335E+000	-1.3544360E+000	-3.203514210950755E+001	-6.0295206E-001	10	4.3389551E-002	4.2279694E+001
2	0	0	0	1.160473970683961E+002	-1.3551334E+000	-1.3553890E+000	-3.234900154386241E+001	-6.0939181E-001	10	4.3845482E-002	4.1898945E+001
2	0	0	0	1.162473970633437E+002	-1.3561335E+000	-1.3564490E+000	-3.264107873893911E+001	-6.1589426E-001	10	4.4275958E-002	4.1556499E+001
2	0	0	0	1.164473970582912E+002	-1.3571335E+000	-1.3574817E+000	-3.284048434179644E+001	-6.2244684E-001	10	4.4580355E-002	4.1335617E+001
2	0	0	0	1.166473970532388E+002	-1.3581333E+000	-1.3584273E+000	-3.318563388588751E+001	-6.2905353E-001	10	4.5080271E-002	4.0934196E+001
2	0	0	0	1.168473970481864E+002	-1.3591334E+000	-1.3594512E+000	-3.352767905221239E+001	-6.3572669E-001	10	4.5579243E-002	4.0547131E+001
2	0	0	0	1.170473970431340E+002	-1.3601333E+000	-1.3604296E+000	-3.388745082343775E+001	-6.4247334E-001	10	4.6101492E-002	4.0145531E+001
2	0	0	0	1.172473970380815E+002	-1.3611333E+000	-1.3614261E+000	-3.432204357810031E+001	-6.4929801E-001	10	4.6726927E-002	3.9666233E+001
2	0	0	0	1.174473970330291E+002	-1.3621333E+000	-1.3624471E+000	-3.478662144462007E+001	-6.5621412E-001	10	4.7394931E-002	3.9165836E+001
2	0	0	0	1.176473970279767E+002	-1.3631333E+000	-1.3634573E+000	-3.506463157562979E+001	-6.6320163E-001	10	4.7809128E-002	3.8884121E+001
2	0	0	0	1.178473970229243E+002	-1.3641334E+000	-1.3644369E+000	-3.533375149194886E+001	-6.7024499E-001	10	4.8210673E-002	3.8615681E+001
2	0	0	0	1.180473970178718E+002	-1.3651333E+000	-1.3654153E+000	-3.565549376573154E+001	-6.7734909E-001	10	4.8684560E-002	3.8294670E+001
2	0	0	0	1.182473970128194E+002	-1.3661332E+000	-1.3664192E+000	-3.596908828055223E+001	-6.8451554E-001	10	4.9148854E-002	3.7988708E+001
2	0	0	0	1.184473970077670E+002	-1.3671331E+000	-1.3674316E+000	-3.621943359256073E+001	-6.9173646E-001	10	4.9527600E-002	3.7754086E+001
2	0	0	0	1.186473970027146E+002	-1.3681332E+000	-1.3684345E+000	-3.650249440059088E+001	-6.9901317E-001	10	4.9951274E-002	3.7488796E+001
2	0	0	0	1.188473969976621E+002	-1.3691332E+000	-1.3693748E+000	-3.689663201638086E+001	-7.0635736E-001	10	5.0525315E-002	3.7113815E+001
2	0	0	0	1.190473969926097E+002	-1.3701330E+000	-1.3703978E+000	-3.752996409182634E+001	-7.1380591E-001	10	5.1430982E-002	3.6514763E+001
2	0	0	0	1.192473969875573E+002	-1.3711331E+000	-1.3714821E+000	-3.778562668094310E+001	-7.2134072E-001	10	5.1822312E-002	3.6296398E+001
2	0	0	1	1.194473969825049E+002	-1.3721331E+000	-1.3724841E+000	-3.815339151982243E+001	-7.2893870E-001	10	5.2364923E-002	3.5972794E+001
2	0	0	1	1.196472969774550E+002	-1.3731328E+000	-1.3734007E+000	-3.849433891980916E+001	-7.3660487E-001	10	5.2868150E-002	3.5677990E+001
2	0	0	1	1.198472969724025E+002	-1.3741331E+000	-1.3743815E+000	-3.881508704924164E+001	-7.4433929E-001	10	5.3346738E-002	3.5408436E+001
2	0	0	1	1.200471969673526E+002	-1.3751328E+000	-1.3754381E+000	-3.904974247747498E+001	-7.5212467E-001	10	5.3710502E-002	3.5222717E+001
2	0	0	1	1.202472969622977E+002	-1.3761334E+000	-1.3764576E+000	-3.929969276886925E+001	-7.5996822E-001	10	5.4094359E-002	3.5024639E+001
2	0	0	1	1.204471969572478E+002	-1.3771329E+000	-1.3774590E+000	-3.964078113578603E+001	-7.6786417E-001	10	5.4603554E-002	3.4748535E+001
2	0	0	1	1.206471969521954E+002	-1.3781328E+000	-1.3784003E+000	-4.029219361092225E+001	-7.7586210E-001	10	5.5538774E-002	3.4210110E+001
2	0	0	1	1.208471969471429E+002	-1.3791329E+000	-1.3794191E+000	-4.064282642443436E+001	-7.8395849E-001	10	5.6063492E-002	3.3940037E+001
2	0	0	1	1.210471969420905E+002	-1.3801329E+000	-1.3804431E+000	-4.099979019408313E+001	-7.9212517E-001	10	5.6597877E-002	3.3669518E+001
2	0	0	1	1.212471969370381E+002	-1.3811330E+000	-1.3814045E+000	-4.127524167637166E+001	-8.0035692E-001	10	5.7017807E-002	3.3468113E+001
2	0	0	1	1.214471969319857E+002	-1.3821329E+000	-1.3824393E+000	-4.158283177362819E+001	-8.0864686E-001	10	5.7485741E-002	3.3245434E+001
2	0	0	1	1.216471969269332E+002	-1.3831328E+000	-1.3833976E+000	-4.189781669775653E+001	-8.1699884E-001	10	5.7961337E-002	3.3018368E+001
2	0	0	1	1.218471969218808E+002	-1.3841327E+000	-1.3844715E+000	-4.221007551249456E+001	-8.2541037E-001	10	5.8438648E-002	3.2799553E+001
2	0	0	1	1.220471969168284E+002	-1.3851328E+000	-1.3854203E+000	-4.259938918760292E+001	-8.3389407E-001	10	5.9018061E-002	3.2522072E+001
2	0	0	1	1.222471969117760E+002	-1.3861328E+000	-1.3863860E+000	-4.319263138684556E+001	-8.4247804E-001	10	5.9881661E-002	3.2097744E+001
2	0	0	1	1.224471969067235E+002	-1.3871329E+000	-1.3874396E+000	-4.349709443873019E+001	-8.5115194E-001	10	6.0349591E-002	3.1897293E+001
2	0	0	1	1.226471969016711E+002	-1.3881327E+000	-1.3884298E+000	-4.383506776253938E+001	-8.5988981E-001	10	6.0861912E-002	3.1673950E+001
2	0	0	1	1.228471968966187E+002	-1.3891327E+000	-1.3894211E+000	-4.417264689096248E+001	-8.6869502E-001	10	6.1374407E-002	3.1454332E+001
2	0	0	1	1.230471968915663E+002	-1.3901328E+000	-1.3904070E+000	-4.441885390546582E+001	-8.7755585E-001	10	6.1760284E-002	3.1302179E+001
2	0	0	1	1.232471968865138E+002	-1.3911326E+000	-1.3914012E+000	-4.464536711093803E+001	-8.8646412E-001	10	6.2119614E-002	3.1165634E+001
2	0	0	1	1.234471968814614E+002	-1.3921326E+000	-1.3924413E+000	-4.500748758656636E+001	-8.9543319E-001	10	6.2670283E-002	3.0937992E+001
2	0	0	1	1.236471968764090E+002	-1.3931327E+000	-1.3934376E+000	-4.555011967655787E+001	-9.0449071E-001	10	6.3471250E-002	3.0591305E+001
2	0	0	1	1.238471968713566E+002	-1.3941326E+000	-1.3944076E+000	-4.611416439728964E+001	-9.1366476E-001	10	6.4301945E-002	3.0238163E+001
2	0	0	1	1.240471968663041E+002	-1.3951327E+000	-1.3954561E+000	-4.645717072946411E+001	-9.2292827E-001	10	6.4828940E-002	3.0037474E+001
2	0	0	1	1.242471968612517E+002	-1.3961325E+000	-1.3964059E+000	-4.671459635693458E+001	-9.3225086E-001	10	6.5232538E-002	2.9892282E+001
2	0	0	1	1.244471968561993E+002	-1.3971325E+000	-1.3974119E+000	-4.704700106666201E+001	-9.4163334E-001	10	6.5744042E-002	2.9702465E+001
2	0	0	1	1.246471968511469E+002	-1.3981326E+000	-1.3984222E+000	-4.731367715145757E+001	-9.5107359E-001	10	6.6164501E-002	2.9556406E+001
2	0	0	1	1.248471968460944E+002	-1.3991326E+000	-1.3994293E+000	-4.769574977859588E+001	-9.6057677E-001	10	6.6746831E-002	2.9340755E+001
2	0	0	1	1.250471968410420E+002	-1.4001324E+000	-1.4004333E+000	-4.826622595592403E+001	-9.7017366E-001	10	6.7593627E-002	2.9014767E+001
2	0	0	1	1.252471968359896E+002	-1.4011325E+000	-1.4013757E+000	-4.882150457965008E+001	-9.7988844E-001	10	6.8417266E-002	2.8704065E+001
2	0	0	1	1.254471968309372E+002	-1.4021324E+000	-1.4024357E+000	-4.916864512080258E+001	-9.8969096E-001	10	6.8955861E-002	2.8522968E+001
2	0	0	1	1.256471968258847E+002	-1.4031323E+000	-1.4034058E+000	-4.955277054082785E+001	-9.9956691E-001	10	6.9542646E-002	2.8321440E+001
2	0	0	1	1.258471968208323E+002	-1.4041324E+000	-1.4043545E+000	-4.987279684878808E+001	-1.0095135E+000	10	7.0039086E-002	2.8158726E+001
2	0	0	1	1.260471968157799E+002	-1.4051324E+000	-1.4054167E+000	-5.015169569316095E+001	-1.0195208E+000	10	7.0484035E-002	2.8023314E+001
2	0	0	1	1.262471968107275E+002	-1.4061323E+000	-1.4064184E+000	-5.043355183590563E+001	-1.0295839E+000	10	7.0930675E-002	2.7886564E+001
2	0	0	1	1.264471968056750E+002	-1.4071324E+000	-1.4074223E+000	-5.073846343801665E+001	-1.0397054E+000	10	7.1410447E-002	2.7738766E+001
2	0	0	1	1.266471968006226E+002	-1.4081322E+000	-1.4084009E+000	-5.122726656141731E+001	-1.0499086E+000	10	7.2148532E-002	2.7493189E+001
2	0	0	1	1.268471967955702E+002	-1.4091322E+000	-1.4094621E+000	-5.164116035297047E+001	-1.0602006E+000	10	7.2786257E-002	2.7293385E+001
2	0	0	1	1.270471967905178E+002	-1.4101323E+000	-1.4104257E+000	-5.223843039136347E+001	-1.0705920E+000	10	7.3678426E-002	2.6999771E+001
2	0	0	1	1.272471967854653E+002	-1.4111321E+000	-1.4114401E+000	-5.250667745293958E+001	-1.0810680E+000	10	7.4110031E-002	2.6881155E+001
2	0	0	1	1.274471967804129E+002	-1.4121321E+000	-1.4124092E+000	-5.279666844354983E+001	-1.0916002E+000	10	7.4570499E-002	2.6751862E+001
2	0	0	1	1.276471967753605E+002	-1.4131322E+000	-1.4134119E+000	-5.314506009809043E+001	-1.1021976E+000	10	7.5115860E-002	2.6595358E+001
2	0	0	1	1.278471967703081E+002	-1.4141321E+000	-1.4144719E+000	-5.351407431961479E+001	-1.1128650E+000	10	7.5694151E-002	2.6431772E+001
2	0	0	1	1.280471967652556E+002	-1.4151322E+000	-1.4154325E+000	-5.398780967318828E+001	-1.1236182E+000	10	7.6416098E-002	2.6217630E+001
2	0	0	1	1.282471967602032E+002	-1.4161323E+000	-1.4164014E+000	-5.437477423319433E+001	-1.1344596E+000	10	7.7016503E-002	2.6048870E+001
2	0	0	1	1.284470967551533E+002	-1.4171320E+000	-1.4173850E+000	-5.498031487097683E+001	-1.1453967E+000	10	7.7928275E-002	2.5779863E+001
2	0	0	1	1.286470967501009E+002	-1.4181319E+000	-1.4184176E+000	-5.526399536659119E+001	-1.1564246E+000	10	7.8387424E-002	2.5666214E+001
2	0	0	1	1.288470967450485E+002	-1.4191322E+000	-1.4194578E+000	-5.556820994983286E+001	-1.1675115E+000	10	7.8876726E-002	2.5544422E+001
2	0	0	1	1.290469967399986E+002	-1.4201318E+000	-1.4204030E+000	-5.590595375464909E+001	-1.1786562E+000	10	7.9408988E-002	2.5407007E+001
2	0	0	0	1.292469967349462E+002	-1.4211320E+000	-1.4214239E+000	-5.645945852305636E+001	-1.1898985E+000	10	8.0252826E-002	2.5176010E+001
2	0	0	0	1.294469967298937E+002	-1.4221320E+000	-1.4223844E+000	-5.692148296470822E+001	-1.2012427E+000	10	8.0964230E-002	2.4988533E+001
2	0	0	0	1.296469967248413E+002	-1.4231321E+000	-1.4234097E+000	-5.735398833984110E+001	-1.2126760E+000	10	8.1638224E-002	2.4817972E+001
2	0	0	0	1.298469967197889E+002	-1.4241319E+000	-1.4243975E+000	-5.766811567747686E+001	-1.2241821E+000	10	8.2142316E-002	2.4699913E+001
2	0	0	0	1.300469967147365E+002	-1.4251318E+000	-1.4254268E+000	-5.796807270633906E+001	-1.2357477E+000	10	8.2629248E-002	2.4589861E+001
2	0	0	0	1.302469967096840E+002	-1.4261318E+000	-1.4264648E+000	-5.835881949227951E+001	-1.2473818E+000	10	8.3246805E-002	2.4443003E+001
2	0	0	0	1.304469967046316E+002	-1.4271319E+000	-1.4274453E+000	-5.873385738299282E+001	-1.2590936E+000	10	8.3839372E-002	2.4303619E+001
2	0	0	0	1.306469966995792E+002	-1.4281319E+000	-1.4283676E+000	-5.938426193358407E+001	-1.2709088E+000	10	8.4822558E-002	2.4052965E+001
2	0	0	0	1.308469966945268E+002	-1.4291319E+000	-1.4294488E+000	-5.980006540767749E+001	-1.2828344E+000	10	8.5481137E-002	2.3903801E+001
2	0	0	0	1.310469966894743E+002	-1.4301318E+000	-1.4304389E+000	-6.024781537758781E+001	-1.2948442E+000	10	8.6180814E-002	2.3742584E+001
2	0	0	0	1.312469966844219E+002	-1.4311318E+000	-1.4314036E+000	-6.077692042672965E+001	-1.3069516E+000	10	8.6996302E-002	2.3551764E+001
2	0	0	0	1.314469966793695E+002	-1.4321316E+000	-1.4323473E+000	-6.137317593838367E+001	-1.3191695E+000	10	8.7907702E-002	2.3338327E+001
2	0	0	0	1.316469966743171E+002	-1.4331317E+000	-1.4333829E+000	-6.178805289246861E+001	-1.3314900E+000	10	8.8565938E-002	2.3198381E+001
2	0	0	0	1.318469966692646E+002	-1.4341317E+000	-1.4344144E+000	-6.226343512967570E+001	-1.3439008E+000	10	8.9311570E-002	2.3037828E+001
2	0	0	0	1.320469966642122E+002	-1.4351318E+000	-1.4354289E+000	-6.266301336688504E+001	-1.3563963E+000	10	8.9948297E-002	2.2907116E+001
2	0	0	0	1.322469966591598E+002	-1.4361317E+000	-1.4364305E+000	-6.307416302006254E+001	-1.3689739E+000	10	9.0601645E-002	2.2773674E+001
2	0	0	0	1.324469966541074E+002	-1.4371316E+000	-1.4374080E+000	-6.374893616278430E+001	-1.3816613E+000	10	9.1633230E-002	2.2547953E+001
2	0	0	0	1.326469966490549E+002	-1.4381316E+000	-1.4383652E+000	-6.397839933404043E+001	-1.3944390E+000	10	9.2024304E-002	2.2482044E+001
2	0	0	0	1.328469966440025E+002	-1.4391316E+000	-1.4393988E+000	-6.440415033245279E+001	-1.4072818E+000	10	9.2703253E-002	2.2349472E+001
2	0	0	0	1.330469966389501E+002	-1.4401317E+000	-1.4404209E+000	-6.457847353660600E+001	-1.4201856E+000	10	9.3020178E-002	2.2304970E+001
2	0	0	0	1.332469966338977E+002	-1.4411315E+000	-1.4413929E+000	-6.515041958826180E+001	-1.4331619E+000	10	9.3907349E-002	2.2124077E+001
2	0	0	0	1.334469966288452E+002	-1.4421315E+000	-1.4423383E+000	-6.571731315556553E+001	-1.4462566E+000	10	9.4786599E-002	2.1947617E+001
2	0	0	0	1.336469966237928E+002	-1.4431316E+000	-1.4433931E+000	-6.601004251222776E+001	-1.4594337E+000	10	9.5278442E-002	2.1866266E+001
2	0	0	0	1.338469966187404E+002	-1.4441314E+000	-1.4444215E+000	-6.638926131655035E+001	-1.4726813E+000	10	9.5894076E-002	2.1756855E+001
2	0	0	0	1.340469966136880E+002	-1.4451314E+000	-1.4453766E+000	-6.670763918980447E+001	-1.4859973E+000	10	9.6417665E-002	2.1667334E+001
2	0	0	0	1.342469966086355E+002	-1.4461315E+000	-1.4463954E+000	-6.703694841759005E+001	-1.4993767E+000	10	9.6961930E-002	2.1576092E+001
2	0	0	0	1.344469966035831E+002	-1.4471315E+000	-1.4473696E+000	-6.740945270596740E+001	-1.5128266E+000	10	9.7566389E-002	2.1471315E+001
2	0	0	0	1.346469965985307E+002	-1.4481314E+000	-1.4483758E+000	-6.817880470195860E+001	-1.5263954E+000	10	9.8748535E-002	2.1243784E+001
2	0	0	0	1.348469965934783E+002	-1.4491315E+000	-1.4494232E+000	-6.842444787274144E+001	-1.5400591E+000	10	9.9175982E-002	2.1182827E+001
2	0	0	0	1.350469965884258E+002	-1.4501313E+000	-1.4504323E+000	-6.869088666293072E+001	-1.5537727E+000	10	9.9631481E-002	2.1115353E+001
2	0	0	0	1.352469965833734E+002	-1.4511313E+000	-1.4514000E+000	-6.911337533559390E+001	-1.5675532E+000	10	1.0031115E-001	2.1000277E+001
2	0	0	0	1.354469965783210E+002	-1.4521314E+000	-1.4524039E+000	-6.963676980671698E+001	-1.5814314E+000	10	1.0114072E-001	2.0856853E+001
2	0	0	0	1.356469965732686E+002	-1.4531312E+000	-1.4533845E+000	-7.019363945087343E+001	-1.5954190E+000	10	1.0201835E-001	2.0705359E+001
2	0	0	0	1.358469965682161E+002	-1.4541312E+000	-1.4544215E+000	-7.053255307701465E+001	-1.6094937E+000	10	1.0258406E-001	2.0620571E+001
2	0	0	0	1.360469965631637E+002	-1.4551312E+000	-1.4553828E+000	-7.086494638914428E+001	-1.6236366E+000	10	1.0313562E-001	2.0537415E+001
2	0	0	0	1.362469965581113E+002	-1.4561312E+000	-1.4564143E+000	-7.127124545687730E+001	-1.6378521E+000	10	1.0380046E-001	2.0434811E+001
2	0	0	0	1.364469965530589E+002	-1.4571311E+000	-1.4574053E+000	-7.183825863245647E+001	-1.6521676E+000	10	1.0469746E-001	2.0287313E+001
2	0	0	0	1.366469965480064E+002	-1.4581312E+000	-1.4584233E+000	-7.220034181179642E+001	-1.6665794E+000	10	1.0529866E-001	2.0199673E+001
2	0	0	0	1.368469965429540E+002	-1.4591311E+000	-1.4594620E+000	-7.259747468911576E+001	-1.6810623E+000	10	1.0595326E-001	2.0103483E+001
2	0	0	0	1.370469965379016E+002	-1.4601312E+000	-1.4604353E+000	-7.299620681068518E+001	-1.6956248E+000	10	1.0660624E-001	2.0007002E+001
2	0	0	1	1.372469965328492E+002	-1.4611312E+000	-1.4613969E+000	-7.343762881657068E+001	-1.7102722E+000	10	1.0732152E-001	1.9899837E+001
2	0	0	1	1.374468965277993E+002	-1.4621309E+000	-1.4623519E+000	-7.401235267653544E+001	-1.7250131E+000	10	1.0823210E-001	1.9758215E+001
2	0	0	1	1.376468965227468E+002	-1.4631311E+000	-1.4633758E+000	-7.456880704362015E+001	-1.7398732E+000	10	1.0912219E-001	1.9624504E+001
2	0	0	1	1.378467965176969E+002	-1.4641310E+000	-1.4644284E+000	-7.530401455869207E+001	-1.7548609E+000	10	1.1027734E-001	1.9446884E+001
2	0	0	1	1.380467965126445E+002	-1.4651309E+000	-1.4653466E+000	-7.562287212863089E+001	-1.7699574E+000	10	1.1081371E-001	1.9377029E+001
2	0	0	1	1.382467965075921E+002	-1.4661310E+000	-1.4664279E+000	-7.601104013665727E+001	-1.7851233E+000	10	1.1146471E-001	1.9292301E+001
2	0	0	1	1.384467965025397E+002	-1.4671310E+000	-1.4673861E+000	-7.630559487786115E+001	-1.8003601E+000	10	1.1196977E-001	1.9230387E+001
2	0	0	1	1.386467964974872E+002	-1.4681309E+000	-1.4683764E+000	-7.652436803041368E+001	-1.8156484E+000	10	1.1236658E-001	1.9188351E+001
2	0	0	1	1.388467964924348E+002	-1.4691310E+000	-1.4694058E+000	-7.719285642424944E+001	-1.8310238E+000	10	1.1342763E-001	1.9035515E+001
2	0	0	1	1.390467964873824E+002	-1.4701309E+000	-1.4704075E+000	-7.780520513376655E+001	-1.8465325E+000	10	1.1440536E-001	1.8898575E+001
2	0	0	1	1.392467964823300E+002	-1.4711308E+000	-1.4713637E+000	-7.824894809128187E+001	-1.8621408E+000	10	1.1513266E-001	1.8803623E+001
2	0	0	1	1.394467964772775E+002	-1.4721309E+000	-1.4723835E+000	-7.868273790839601E+001	-1.8778381E+000	10	1.1585116E-001	1.8712917E+001
2	0	0	1	1.396467964722251E+002	-1.4731307E+000	-1.4733599E+000	-7.899792565726369E+001	-1.8936081E+000	10	1.1639238E-001	1.8650616E+001
2	0	0	1	1.398467964671727E+002	-1.4741307E+000	-1.4743806E+000	-7.972531964881614E+001	-1.9094816E+000	10	1.1754546E-001	1.8493254E+001
2	0	0	1	1.400467964621203E+002	-1.4751308E+000	-1.4754206E+000	-8.035999105468613E+001	-1.9254961E+000	10	1.1856478E-001	1.8360138E+001
2	0	0	1	1.402467964570678E+002	-1.4761308E+000	-1.4763663E+000	-8.068623170290425E+001	-1.9416046E+000	10	1.1912243E-001	1.8297623E+001
2	0	0	1	1.404467964520154E+002	-1.4771308E+000	-1.4773848E+000	-8.104152763349367E+001	-1.9577779E+000	10	1.1972952E-001	1.8229973E+001
2	0	0	1	1.406467964469630E+002	-1.4781307E+000	-1.4783911E+000	-8.174938283323422E+001	-1.9740591E+000	10	1.2085756E-001	1.8084431E+001
2	0	0	1	1.408467964419106E+002	-1.4791306E+000	-1.4794331E+000	-8.228371544489801E+001	-1.9904687E+000	10	1.2173325E-001	1.7979658E+001
2	0	0	1	1.410467964368581E+002	-1.4801307E+000	-1.4804020E+000	-8.265393175992301E+001	-2.0069695E+000	10	1.2236104E-001	1.7910849E+001
2	0	0	1	1.412467964318057E+002	-1.4811307E+000	-1.4813602E+000	-8.298505297810038E+001	-2.0235364E+000	10	1.2293076E-001	1.7850927E+001
2	0	0	1	1.414467964267533E+002	-1.4821308E+000	-1.4823558E+000	-8.339890419166386E+001	-2.0401773E+000	10	1.2362685E-001	1.7774284E+001
2	0	0	1	1.416467964217009E+002	-1.4831306E+000	-1.4834063E+000	-8.423593945351828E+001	-2.0569470E+000	10	1.2495612E-001	1.7610136E+001
2	0	0	1	1.418467964166484E+002	-1.4841306E+000	-1.4843783E+000	-8.454511050302176E+001	-2.0738287E+000	10	1.2549692E-001	1.7557234E+001
2	0	0	1	1.420467964115960E+002	-1.4851304E+000	-1.4853972E+000	-8.490260862763489E+001	-2.0907798E+000	10	1.2611410E-001	1.7495308E+001
2	0	0	1	1.422467964065436E+002	-1.4861305E+000	-1.4863374E+000	-8.508417378910008E+001	-2.1077802E+000	10	1.2646379E-001	1.7469023E+001
2	0	0	1	1.424467964014912E+002	-1.4871305E+000	-1.4873573E+000	-8.583331807995000E+001	-2.1248724E+000	10	1.2766480E-001	1.7328438E+001
2	0	0	1	1.426467963964387E+002	-1.4881306E+000	-1.4883654E+000	-8.653018361208399E+001	-2.1421187E+000	10	1.2878853E-001	1.7200535E+001
2	0	0	1	1.428467963913863E+002	-1.4891305E+000	-1.4893767E+000	-8.684183409424838E+001	-2.1594591E+000	10	1.2934020E-001	1.7150452E+001
2	0	0	1	1.430467963863339E+002	-1.4901305E+000	-1.4903870E+000	-8.720186542221165E+001	-2.1768703E+000	10	1.2996453E-001	1.7091228E+001
2	0	0	1	1.432467963812815E+002	-1.4911304E+000	-1.4913706E+000	-8.748881396955358E+001	-2.1943429E+000	10	1.3047825E-001	1.7046413E+001
2	0	0	1	1.434467963762290E+002	-1.4921304E+000	-1.4923183E+000	-8.837954516691957E+001	-2.2119396E+000	10	1.3189042E-001	1.6885336E+001
2	0	0	1	1.436467963711766E+002	-1.4931304E+000	-1.4934282E+000	-8.891326124814093E+001	-2.2296782E+000	10	1.3278557E-001	1.6796463E+001
2	0	0	1	1.438467963661242E+002	-1.4941303E+000	-1.4944174E+000	-8.928922659415502E+001	-2.2475007E+000	10	1.3343538E-001	1.6736816E+001
2	0	0	1	1.440467963610718E+002	-1.4951303E+000	-1.4953852E+000	-8.943805183791255E+001	-2.2653816E+000	10	1.3374433E-001	1.6719788E+001
2	0	0	1	1.442467963560193E+002	-1.4961302E+000	-1.4963722E+000	-9.012413412481192E+001	-2.2833433E+000	10	1.3485925E-001	1.6603456E+001
2	0	0	1	1.444467963509669E+002	-1.4971303E+000	-1.4973718E+000	-9.064523082525557E+001	-2.3014278E+000	10	1.3572961E-001	1.6519035E+001
2	0	0	1	1.446467963459145E+002	-1.4981302E+000	-1.4983873E+000	-9.093688620515468E+001	-2.3195882E+000	10	1.3625868E-001	1.6477222E+001
2	0	0	1	1.448467963408621E+002	-1.4991302E+000	-1.4993755E+000	-9.123431219914073E+001	-2.3378084E+000	10	1.3679449E-001	1.6434338E+001
2	0	0	1	1.449767963375780E+002	-1.4997799E+000	-1.4999835E+000	-9.146042533553339E+001	-2.3496809E+000	10	1.3718913E-001	1.6400356E+001
2	0	0	1	1.450107963367191E+002	-1.4999799E+000	-1.5001839E+000	-9.156217996697677E+001	-2.3527920E+000	10	1.3736011E-001	1.6384319E+001