EC-Lab ASCII FILE
Nb header lines : 61                          

Linear Sweep Voltammetry

Run on channel : 2 (SN 77481)
User : 
CE vs. WE compliance from -10 V to 10 V
Electrode connection : standard
Potential control : Ewe
Ewe ctrl range : min = -2.50 V, max = 2.50 V
Safety Limits :
	Do not start on E overload
Acquisition started on : 03/02/2026 15:49:58.153
Technique started on : 03/02/2026 15:49:58.153
Loaded Setting File :  D:\Dr. Kiran V\CE-II 2026\group F\020326\HER with SS\mSS 7 min HER_C02.mpr
Saved on :
	File : mSS 7 min HER after condn_C02.mpr
	Directory : D:\Dr. Kiran V\CE-II 2026\group F\020326\HER with SS\
	Host : 192.109.209.127
Device : SP-150e (SN .003673)
Address : 192.109.209.128
EC-LAB for windows v11.60 (software)
Internet server v11.60 (firmware)
Command interpretor v11.60 (firmware)
Electrode material : Au/Pd
Initial state : 
Electrolyte : NaCl (0.2M)
Comments : Fe(CN)63-/Fe(CN)64- 5.10-3 M
Reference electrode : SCE Saturated Calomel Electrode (0.241 V)
Electrode surface area : 0.001 cm²
Characteristic mass : 0.001 g
Equivalent Weight : 0.000 g/eq.
Density : 0.000 g/cm3
Volume (V) : 0.001 cm³
Cycle Definition : Charge/Discharge alternance
tR (h:m:s)          0:00:5.0000         
dER/dt (mV/h)       0.0                 
dER (mV)            0                   
dtR (s)             0.0000              
dE/dt               5.000               
dE/dt unit          mV/s                
Ei (V)              -0.800              
vs.                 Ref                 
EL (V)              -1.500              
vs.                 Ref                 
record              <I>                 
dI                  0.000               
unit dI             µA                  
tI (s)              0.0000              
step percent        50                  
N                   10                  
E range min (V)     -2.500              
E range max (V)     2.500               
I Range             Auto                
I Range min         Unset               
I Range max         Unset               
I Range init        Unset               
Bandwidth           5                   

mode	ox/red	error	control changes	time/s	control/V	Ewe/V	<I>/mA	(Q-Qo)/C	I Range	Pwe/W	Rwe/Ohm	
3	1	0	0	0.000000000000000E+000	0.0000000E+000	-8.6730558E-001	0.000000000000000E+000	0.0000000E+000	14	0.0000000E+000	0.0000000E+000
3	1	0	1	4.999799873694428E+000	-7.9994589E-001	-8.6551189E-001	0.000000000000000E+000	0.0000000E+000	14	0.0000000E+000	0.0000000E+000
2	1	0	0	5.099799871168216E+000	-8.0039573E-001	-8.0076814E-001	7.527012367248535E+000	1.5951248E-004	11	-6.0273916E-003	1.0638592E+002
2	1	0	0	5.209799868389382E+000	-8.0094582E-001	-8.0131102E-001	4.741324564327996E+000	7.1276777E-004	11	-3.7992755E-003	1.6900572E+002
2	1	0	0	5.409799863336957E+000	-8.0194587E-001	-8.0229479E-001	3.200393693280871E+000	1.4885518E-003	11	-2.5676591E-003	2.5068628E+002
2	1	0	0	5.609799858284532E+000	-8.0294591E-001	-8.0325735E-001	2.594811408546111E+000	2.0610399E-003	11	-2.0843013E-003	3.0956290E+002
2	1	0	0	5.809799853232107E+000	-8.0394578E-001	-8.0430263E-001	2.223020335325710E+000	2.5377728E-003	11	-1.7879811E-003	3.6180624E+002
2	1	0	0	6.009799848179682E+000	-8.0494583E-001	-8.0531293E-001	1.955465700367549E+000	2.9513754E-003	11	-1.5747618E-003	4.1182666E+002
2	1	0	0	6.209799843127257E+000	-8.0594575E-001	-8.0626160E-001	1.749107780302467E+000	3.3179584E-003	11	-1.4102384E-003	4.6095593E+002
2	1	0	0	6.409799838074832E+000	-8.0694574E-001	-8.0729103E-001	1.578269796239013E+000	3.6470464E-003	11	-1.2741231E-003	5.1150381E+002
2	1	0	0	6.609799833022407E+000	-8.0794573E-001	-8.0823022E-001	1.435960577332040E+000	3.9450219E-003	11	-1.1605867E-003	5.6284985E+002
2	1	0	0	6.809799827969982E+000	-8.0894578E-001	-8.0928081E-001	1.312912461768139E+000	4.2165727E-003	11	-1.0625148E-003	6.1640118E+002
2	1	0	0	7.009799822917557E+000	-8.0994564E-001	-8.1026453E-001	1.203685908259450E+000	4.4650226E-003	11	-9.7530399E-004	6.7315277E+002
2	1	0	0	7.209799817865132E+000	-8.1094569E-001	-8.1121647E-001	1.108048757905657E+000	4.6930676E-003	11	-8.9886738E-004	7.3211261E+002
2	1	0	0	7.409799812812707E+000	-8.1194562E-001	-8.1230742E-001	1.021416996265692E+000	4.9029174E-003	11	-8.2970463E-004	7.9527502E+002
2	1	0	0	7.609799807760282E+000	-8.1294560E-001	-8.1329429E-001	9.421414849929146E-001	5.0962144E-003	11	-7.6623831E-004	8.6324005E+002
2	1	0	0	7.809799802707857E+000	-8.1394559E-001	-8.1427383E-001	8.709153880591138E-001	5.2744672E-003	11	-7.0916361E-004	9.3496320E+002
2	1	0	0	8.009799797655432E+000	-8.1494558E-001	-8.1527978E-001	8.042439486442881E-001	5.4389932E-003	11	-6.5568381E-004	1.0137220E+003
2	1	0	0	8.209799792603008E+000	-8.1594551E-001	-8.1622642E-001	7.433243607996634E-001	5.5908156E-003	11	-6.0672098E-004	1.0980757E+003
2	1	0	0	8.409799787550583E+000	-8.1694555E-001	-8.1728017E-001	6.869358838896957E-001	5.7309200E-003	11	-5.6141906E-004	1.1897474E+003
2	1	0	0	8.609799782498158E+000	-8.1794548E-001	-8.1823850E-001	6.336720627806507E-001	5.8600837E-003	11	-5.1849487E-004	1.2912649E+003
2	1	0	0	8.809799777445733E+000	-8.1894547E-001	-8.1926036E-001	5.843308049458980E-001	5.9789415E-003	11	-4.7871907E-004	1.4020490E+003
2	1	0	0	9.009799772393308E+000	-8.1994551E-001	-8.2027072E-001	5.368393070303130E-001	6.0880650E-003	11	-4.4035356E-004	1.5279633E+003
2	1	0	0	9.209799767340883E+000	-8.2094544E-001	-8.2123750E-001	4.932777138042539E-001	6.1881994E-003	11	-4.0509817E-004	1.6648583E+003
2	1	0	0	9.429799761783215E+000	-8.2204533E-001	-8.2236332E-001	4.488186296890393E-001	6.2885252E-003	11	-3.6909198E-004	1.8322843E+003
2	1	0	0	9.649799756225548E+000	-8.2314545E-001	-8.2347745E-001	4.053591321731425E-001	6.3801841E-003	12	-3.3380411E-004	2.0314762E+003
2	1	0	0	9.849799751173123E+000	-8.2414532E-001	-8.2450897E-001	3.677728892284975E-001	6.4548971E-003	12	-3.0323205E-004	2.2418970E+003
2	1	0	0	1.004979974612070E+001	-8.2514530E-001	-8.2550007E-001	3.337775212068488E-001	6.5224469E-003	12	-2.7553336E-004	2.4732046E+003
2	1	0	0	1.024979974106827E+001	-8.2614535E-001	-8.2650936E-001	2.999950036144652E-001	6.5831156E-003	12	-2.4794869E-004	2.7550771E+003
2	1	0	0	1.044979973601585E+001	-8.2714534E-001	-8.2748252E-001	2.681586209266471E-001	6.6373022E-003	12	-2.2189657E-004	3.0857949E+003
2	1	0	0	1.064979973096342E+001	-8.2814527E-001	-8.2847691E-001	2.385258481641404E-001	6.6853389E-003	12	-1.9761316E-004	3.4733213E+003
2	1	0	0	1.084979972591100E+001	-8.2914531E-001	-8.2952321E-001	2.089054033460100E-001	6.7274403E-003	12	-1.7329188E-004	3.9708079E+003
2	1	0	0	1.104979972085857E+001	-8.3014524E-001	-8.3045280E-001	1.814953899940228E-001	6.7638764E-003	12	-1.5072335E-004	4.5756138E+003
2	1	0	0	1.124979971580615E+001	-8.3114523E-001	-8.3147907E-001	1.544874137808097E-001	6.7948839E-003	12	-1.2845304E-004	5.3821802E+003
2	1	0	0	1.144979971075372E+001	-8.3214515E-001	-8.3252746E-001	1.282833995510850E-001	6.8206033E-003	12	-1.0679945E-004	6.4897520E+003
2	1	0	0	1.164979970570130E+001	-8.3314508E-001	-8.3349419E-001	1.043988566876277E-001	6.8412917E-003	12	-8.7015840E-005	7.9837480E+003
2	1	0	0	1.184979970064887E+001	-8.3414513E-001	-8.3448017E-001	7.995903592286446E-002	6.8571642E-003	12	-6.6724228E-005	1.0436346E+004
2	1	0	0	1.204979969559645E+001	-8.3514518E-001	-8.3549881E-001	5.709394427806187E-002	6.8683447E-003	12	-4.7701924E-005	1.4633755E+004
2	1	0	0	1.224979969054402E+001	-8.3614510E-001	-8.3646882E-001	3.545360292530822E-002	6.8750381E-003	12	-2.9655834E-005	2.3593338E+004
2	1	0	0	1.246979968498636E+001	-8.3724499E-001	-8.3755308E-001	1.024375117216440E-002	6.8771648E-003	12	-8.5796855E-006	8.1762344E+004
2	0	0	0	1.268979967942869E+001	-8.3834511E-001	-8.3869189E-001	-2.272770995849149E-002	6.8746046E-003	13	1.9061546E-005	3.6901734E+004
2	0	0	0	1.288979967437626E+001	-8.3934498E-001	-8.3971918E-001	-4.213244938122673E-002	6.8678996E-003	13	3.5379424E-005	1.9930461E+004
2	0	0	1	1.308969966932636E+001	-8.4034485E-001	-8.4074181E-001	-6.225107269897967E-002	6.8572741E-003	13	5.2337080E-005	1.3505660E+004
2	0	0	1	1.328959966427647E+001	-8.4134477E-001	-8.4166634E-001	-7.993782103585079E-002	6.8428847E-003	13	6.7280977E-005	1.0529013E+004
2	0	0	1	1.348959965922404E+001	-8.4234494E-001	-8.4277004E-001	-9.797548076777818E-002	6.8248808E-003	13	8.2570798E-005	8.6018467E+003
2	0	0	1	1.370959965366637E+001	-8.4344494E-001	-8.4376651E-001	-1.043659499694696E-001	6.8011116E-003	12	8.8060493E-005	8.0846914E+003
2	0	0	1	1.390959964861395E+001	-8.4444493E-001	-8.4475130E-001	-1.226556457403853E-001	6.7758239E-003	12	1.0361351E-004	6.8871782E+003
2	0	0	1	1.410959964356152E+001	-8.4544486E-001	-8.4578073E-001	-1.405154741390304E-001	6.7469166E-003	12	1.1884528E-004	6.0191289E+003
2	0	0	1	1.430959963850910E+001	-8.4644490E-001	-8.4679300E-001	-1.560731635232564E-001	6.7147636E-003	12	1.3216166E-004	5.4256157E+003
2	0	0	1	1.450959963345667E+001	-8.4744483E-001	-8.4776193E-001	-1.712816905487928E-001	6.6794977E-003	12	1.4520610E-004	4.9495186E+003
2	0	0	1	1.470959962840425E+001	-8.4844476E-001	-8.4879130E-001	-1.870681720082565E-001	6.6411844E-003	12	1.5878184E-004	4.5373369E+003
2	0	0	1	1.490959962335182E+001	-8.4944481E-001	-8.4976763E-001	-2.015178980593002E-001	6.5998696E-003	12	1.7124339E-004	4.2168345E+003
2	0	0	1	1.510959961829940E+001	-8.5044479E-001	-8.5081613E-001	-2.159179389738641E-001	6.5556429E-003	12	1.8370646E-004	3.9404607E+003
2	0	0	1	1.530959961324697E+001	-8.5144472E-001	-8.5177338E-001	-2.307378521311581E-001	6.5085250E-003	12	1.9653636E-004	3.6915200E+003
2	0	0	1	1.550959960819455E+001	-8.5244477E-001	-8.5277182E-001	-2.435171548361605E-001	6.4585740E-003	12	2.0766456E-004	3.5018962E+003
2	0	0	1	1.570959960314212E+001	-8.5344470E-001	-8.5377055E-001	-2.580483236103031E-001	6.4059226E-003	12	2.2031406E-004	3.3085686E+003
2	0	0	1	1.590959959808970E+001	-8.5444468E-001	-8.5479242E-001	-2.711305308394354E-001	6.3505815E-003	12	2.3176032E-004	3.1526970E+003
2	0	0	1	1.610959959303727E+001	-8.5544467E-001	-8.5576242E-001	-2.837542272436848E-001	6.2926384E-003	12	2.4282621E-004	3.0158579E+003
2	0	0	1	1.630959958798485E+001	-8.5644466E-001	-8.5679501E-001	-2.968307770070644E-001	6.2321788E-003	12	2.5432312E-004	2.8864763E+003
2	0	0	1	1.650959958293242E+001	-8.5744458E-001	-8.5776597E-001	-3.090330863375712E-001	6.1691911E-003	12	2.6507807E-004	2.7756445E+003
2	0	0	1	1.670959957788000E+001	-8.5844463E-001	-8.5877204E-001	-3.208983258730697E-001	6.1037624E-003	12	2.7557850E-004	2.6761499E+003
2	0	0	1	1.690959957282757E+001	-8.5944456E-001	-8.5978234E-001	-3.333606337431547E-001	6.0359309E-003	12	2.8661758E-004	2.5791357E+003
2	0	0	1	1.710959956777515E+001	-8.6044455E-001	-8.6078930E-001	-3.441655717203052E-001	5.9657544E-003	12	2.9625403E-004	2.5010906E+003
2	0	0	1	1.730959956272272E+001	-8.6144447E-001	-8.6175936E-001	-3.561353237851774E-001	5.8932900E-003	12	3.0690295E-004	2.4197527E+003
2	0	0	1	1.750959955767030E+001	-8.6244440E-001	-8.6275470E-001	-3.672703010095546E-001	5.8185477E-003	12	3.1686417E-004	2.3491001E+003
2	0	0	1	1.770959955261787E+001	-8.6344445E-001	-8.6377132E-001	-3.776720782758802E-001	5.7415948E-003	12	3.2622230E-004	2.2870935E+003
2	0	0	1	1.790959954756545E+001	-8.6444449E-001	-8.6478907E-001	-3.895958800253165E-001	5.6624352E-003	12	3.3691825E-004	2.2197080E+003
2	0	0	1	1.810959954251302E+001	-8.6544442E-001	-8.6575383E-001	-3.997916847534999E-001	5.5810562E-003	12	3.4612117E-004	2.1655125E+003
2	0	0	1	1.830959953746060E+001	-8.6644441E-001	-8.6681491E-001	-4.100941481478428E-001	5.4976307E-003	12	3.5547573E-004	2.1136973E+003
2	0	0	1	1.850959953240817E+001	-8.6744434E-001	-8.6780071E-001	-4.205512259653901E-001	5.4121353E-003	12	3.6495464E-004	2.0634839E+003
2	0	0	1	1.870959952735575E+001	-8.6844432E-001	-8.6873794E-001	-4.305220986853708E-001	5.3245793E-003	12	3.7401088E-004	2.0178707E+003
2	0	0	1	1.890959952230332E+001	-8.6944431E-001	-8.6974293E-001	-4.404428180374751E-001	5.2350545E-003	12	3.8307204E-004	1.9747012E+003
2	0	0	1	1.910959951725090E+001	-8.7044436E-001	-8.7073940E-001	-4.512529023447791E-001	5.1435158E-003	12	3.9292368E-004	1.9296040E+003
2	0	0	1	1.930959951219847E+001	-8.7144434E-001	-8.7177503E-001	-4.602536732318230E-001	5.0500124E-003	12	4.0123766E-004	1.8941185E+003
2	0	0	1	1.950959950714605E+001	-8.7244427E-001	-8.7276942E-001	-4.703591896639185E-001	4.9545807E-003	12	4.1051512E-004	1.8555381E+003
2	0	0	1	1.970959950209362E+001	-8.7344432E-001	-8.7377864E-001	-4.792930626958736E-001	4.8571876E-003	12	4.1879603E-004	1.8230571E+003
2	0	0	1	1.990959949704120E+001	-8.7444419E-001	-8.7475395E-001	-4.885627205848984E-001	4.7579659E-003	12	4.2737217E-004	1.7904640E+003
2	0	0	1	2.010959949198877E+001	-8.7544411E-001	-8.7573975E-001	-4.984536595819966E-001	4.6568611E-003	12	4.3651569E-004	1.7569131E+003
2	0	0	1	2.030959948693635E+001	-8.7644422E-001	-8.7677664E-001	-5.071772330497607E-001	4.5539034E-003	12	4.4468115E-004	1.7287382E+003
2	0	0	1	2.050959948188392E+001	-8.7744421E-001	-8.7774652E-001	-5.164509459552851E-001	4.4490970E-003	12	4.5331303E-004	1.6995739E+003
2	0	0	1	2.070959947683150E+001	-8.7844414E-001	-8.7878752E-001	-5.259356525749801E-001	4.3424503E-003	12	4.6218568E-004	1.6709031E+003
2	0	0	1	2.090959947177907E+001	-8.7944418E-001	-8.7976390E-001	-5.342797599141544E-001	4.2340392E-003	12	4.7004005E-004	1.6466353E+003
2	0	0	1	2.110959946672665E+001	-8.8044405E-001	-8.8078368E-001	-5.436219578511728E-001	4.1238721E-003	12	4.7881334E-004	1.6202136E+003
2	0	0	1	2.130959946167422E+001	-8.8144410E-001	-8.8176745E-001	-5.522009889529755E-001	4.0119216E-003	12	4.8691285E-004	1.5968234E+003
2	0	0	1	2.150959945662180E+001	-8.8244402E-001	-8.8277245E-001	-5.610372831162174E-001	3.8982222E-003	12	4.9526826E-004	1.5734648E+003
2	0	0	1	2.170959945156937E+001	-8.8344395E-001	-8.8375401E-001	-5.701527996009848E-001	3.7827408E-003	12	5.0387485E-004	1.5500302E+003
2	0	0	1	2.190959944651695E+001	-8.8444442E-001	-8.8473493E-001	-5.781949064158853E-001	3.6655003E-003	12	5.1154924E-004	1.5301672E+003
2	0	0	1	2.210949944146705E+001	-8.8544416E-001	-8.8578641E-001	-5.875495736899943E-001	3.5466284E-003	12	5.2044343E-004	1.5075944E+003
2	0	0	0	2.230939943641715E+001	-8.8644397E-001	-8.8676047E-001	-5.962617799529895E-001	3.4260005E-003	12	5.2874140E-004	1.4872000E+003
2	0	0	0	2.250939943136473E+001	-8.8744396E-001	-8.8773888E-001	-6.041056101343472E-001	3.3035991E-003	12	5.3628802E-004	1.4695094E+003
2	0	0	0	2.270939942631230E+001	-8.8844389E-001	-8.8878632E-001	-6.131691860748885E-001	3.1795350E-003	12	5.4497638E-004	1.4494961E+003
2	0	0	0	2.290939942125988E+001	-8.8944381E-001	-8.8974988E-001	-6.212253771055014E-001	3.0537818E-003	12	5.5273523E-004	1.4322498E+003
2	0	0	0	2.310939941620745E+001	-8.9044386E-001	-8.9075810E-001	-6.290863874091723E-001	2.9264039E-003	12	5.6036381E-004	1.4159551E+003
2	0	0	0	2.330939941115503E+001	-8.9144391E-001	-8.9175552E-001	-6.370688713326751E-001	2.7974399E-003	12	5.6810968E-004	1.3997788E+003
2	0	0	0	2.350939940610260E+001	-8.9244384E-001	-8.9276266E-001	-6.446839772553421E-001	2.6668725E-003	12	5.7554978E-004	1.3848066E+003
2	0	0	0	2.370939940105018E+001	-8.9344382E-001	-8.9376551E-001	-6.529685965065504E-001	2.5347339E-003	12	5.8360083E-004	1.3687726E+003
2	0	0	0	2.390939939599775E+001	-8.9444387E-001	-8.9472598E-001	-6.607119602715077E-001	2.4010336E-003	12	5.9115613E-004	1.3541846E+003
2	0	0	0	2.410939939094533E+001	-8.9544374E-001	-8.9570761E-001	-6.681606214738496E-001	2.2657902E-003	12	5.9847656E-004	1.3405574E+003
2	0	0	0	2.430939938589290E+001	-8.9644372E-001	-8.9677727E-001	-6.783093954573785E-001	2.1288157E-003	12	6.0829247E-004	1.3220770E+003
2	0	0	0	2.450939938084048E+001	-8.9744377E-001	-8.9778429E-001	-6.848167786902652E-001	1.9901264E-003	12	6.1481772E-004	1.3109846E+003
2	0	0	0	2.470939937578805E+001	-8.9844364E-001	-8.9877659E-001	-6.921929030757301E-001	1.8500522E-003	12	6.2212680E-004	1.2984481E+003
2	0	0	0	2.490939937073563E+001	-8.9944375E-001	-8.9978260E-001	-6.983763609934679E-001	1.7086457E-003	12	6.2838692E-004	1.2883921E+003
2	0	0	0	2.510939936568320E+001	-9.0044373E-001	-9.0079284E-001	-7.053212800703079E-001	1.5659099E-003	12	6.3534838E-004	1.2771383E+003
2	0	0	0	2.530939936063078E+001	-9.0144360E-001	-9.0173423E-001	-7.130035444325422E-001	1.4217437E-003	12	6.4293970E-004	1.2646981E+003
2	0	0	0	2.550939935557835E+001	-9.0244353E-001	-9.0279329E-001	-7.213831199818816E-001	1.2759852E-003	12	6.5125985E-004	1.2514755E+003
2	0	0	0	2.570939935052593E+001	-9.0344357E-001	-9.0374845E-001	-7.282791395889170E-001	1.1286797E-003	12	6.5818115E-004	1.2409369E+003
2	0	0	0	2.590939934547350E+001	-9.0444362E-001	-9.0480959E-001	-7.367126289163766E-001	9.7988918E-004	12	6.6658464E-004	1.2281716E+003
2	0	0	0	2.610939934042108E+001	-9.0544355E-001	-9.0575516E-001	-7.434536464884065E-001	8.2955207E-004	12	6.7338697E-004	1.2183075E+003
2	0	0	0	2.630939933536865E+001	-9.0644360E-001	-9.0678757E-001	-7.506687656602484E-001	6.7780633E-004	12	6.8069709E-004	1.2079730E+003
2	0	0	0	2.650939933031623E+001	-9.0744352E-001	-9.0778095E-001	-7.586760210789869E-001	5.2455108E-004	12	6.8871165E-004	1.1965331E+003
2	0	0	0	2.670939932526380E+001	-9.0844351E-001	-9.0871704E-001	-7.657221159443708E-001	3.6977415E-004	12	6.9582474E-004	1.1867452E+003
2	0	0	0	2.690939932021138E+001	-9.0944344E-001	-9.0974534E-001	-7.738899100749288E-001	2.1350282E-004	12	7.0404273E-004	1.1755488E+003
2	0	0	0	2.710939931515895E+001	-9.1044337E-001	-9.1077882E-001	-7.811754705920748E-001	5.5737513E-005	12	7.1147806E-004	1.1659081E+003
2	0	0	0	2.730939931010653E+001	-9.1144341E-001	-9.1177422E-001	-7.874391914478398E-001	-1.0343503E-004	12	7.1796676E-004	1.1578979E+003
2	0	0	0	2.750939930505410E+001	-9.1244346E-001	-9.1276973E-001	-7.955858807529319E-001	-2.6403193E-004	12	7.2618673E-004	1.1472925E+003
2	0	0	0	2.770939930000168E+001	-9.1344339E-001	-9.1371524E-001	-8.025858674257478E-001	-4.2612691E-004	12	7.3333492E-004	1.1384641E+003
2	0	0	0	2.790939929494925E+001	-9.1444337E-001	-9.1472977E-001	-8.096939048596816E-001	-5.8966706E-004	12	7.4065110E-004	1.1297229E+003
2	0	0	0	2.810939928989683E+001	-9.1544330E-001	-9.1575277E-001	-8.177353890608519E-001	-7.5472612E-004	12	7.4884342E-004	1.1198644E+003
2	0	0	0	2.830939928484440E+001	-9.1644329E-001	-9.1676635E-001	-8.242273689786188E-001	-9.2126860E-004	12	7.5562391E-004	1.1122736E+003
2	0	0	0	2.850939927979198E+001	-9.1744328E-001	-9.1778600E-001	-8.320773446049703E-001	-1.0892242E-003	12	7.6366891E-004	1.1030056E+003
2	0	0	0	2.870939927473955E+001	-9.1844326E-001	-9.1878033E-001	-8.397714159284586E-001	-1.2587094E-003	12	7.7156548E-004	1.0940839E+003
2	0	0	0	2.890939926968713E+001	-9.1944325E-001	-9.1974837E-001	-8.463284643852660E-001	-1.4296320E-003	12	7.7840924E-004	1.0867511E+003
2	0	0	0	2.910939926463470E+001	-9.2044324E-001	-9.2073631E-001	-8.543189338359856E-001	-1.6019794E-003	12	7.8660244E-004	1.0777430E+003
2	0	0	0	2.930939925958228E+001	-9.2144316E-001	-9.2177302E-001	-8.629743690832701E-001	-1.7760257E-003	12	7.9546648E-004	1.0681349E+003
2	0	0	0	2.950939925452985E+001	-9.2244315E-001	-9.2282355E-001	-8.703274623387376E-001	-1.9517366E-003	12	8.0315868E-004	1.0603176E+003
2	0	0	0	2.970939924947743E+001	-9.2344308E-001	-9.2378300E-001	-8.773947013901093E-001	-2.1287559E-003	12	8.1052230E-004	1.0528705E+003
2	0	0	0	2.990939924442500E+001	-9.2444313E-001	-9.2482287E-001	-8.831392470536046E-001	-2.3071147E-003	12	8.1674737E-004	1.0471993E+003
2	0	0	0	3.010939923937258E+001	-9.2544305E-001	-9.2578232E-001	-8.904876246152957E-001	-2.4867724E-003	12	8.2439772E-004	1.0396353E+003
2	0	0	0	3.030939923432015E+001	-9.2644310E-001	-9.2677873E-001	-8.974241045326883E-001	-2.6678515E-003	12	8.3171355E-004	1.0327098E+003
2	0	0	0	3.050939922926773E+001	-9.2744315E-001	-9.2778695E-001	-9.042518984636203E-001	-2.8503137E-003	12	8.3895313E-004	1.0260271E+003
2	0	0	1	3.070939922421530E+001	-9.2844307E-001	-9.2877072E-001	-9.125233560656589E-001	-3.0342643E-003	12	8.4752496E-004	1.0178049E+003
2	0	0	1	3.090929921916540E+001	-9.2944306E-001	-9.2980343E-001	-9.192405067819927E-001	-3.2196180E-003	12	8.5471297E-004	1.0114909E+003
2	0	0	1	3.110919921411551E+001	-9.3044281E-001	-9.3078148E-001	-9.264255422003345E-001	-3.4063454E-003	12	8.6229976E-004	1.0047019E+003
2	0	0	1	3.130919920906308E+001	-9.3144292E-001	-9.3177181E-001	-9.339854182705016E-001	-3.5946199E-003	12	8.7026128E-004	9.9762994E+002
2	0	0	1	3.150919920401066E+001	-9.3244296E-001	-9.3283719E-001	-9.405766249868739E-001	-3.7843590E-003	12	8.7740488E-004	9.9177161E+002
2	0	0	1	3.170919919895823E+001	-9.3344301E-001	-9.3377006E-001	-9.480766393497717E-001	-3.9755274E-003	12	8.8528555E-004	9.8490991E+002
2	0	0	1	3.190919919390581E+001	-9.3444294E-001	-9.3476969E-001	-9.554772098335427E-001	-4.1681556E-003	12	8.9315115E-004	9.7832758E+002
2	0	0	1	3.210919918885338E+001	-9.3544292E-001	-9.3571848E-001	-9.621454251258577E-001	-4.3622409E-003	12	9.0029725E-004	9.7253333E+002
2	0	0	1	3.230919918380096E+001	-9.3644279E-001	-9.3675619E-001	-9.701846396791289E-001	-4.5577493E-003	12	9.0882648E-004	9.6554425E+002
2	0	0	1	3.250919917874853E+001	-9.3744272E-001	-9.3777609E-001	-9.773662638958167E-001	-4.7547561E-003	12	9.1655069E-004	9.5949298E+002
2	0	0	1	3.270919917369611E+001	-9.3844283E-001	-9.3876302E-001	-9.841736603165017E-001	-4.9531842E-003	12	9.2390581E-004	9.5385913E+002
2	0	0	1	3.290919916864368E+001	-9.3944287E-001	-9.3975532E-001	-9.921457706581021E-001	-5.1530814E-003	12	9.3237427E-004	9.4719482E+002
2	0	0	1	3.310919916359126E+001	-9.4044274E-001	-9.4077200E-001	-9.987482090486957E-001	-5.3544412E-003	12	9.3959435E-004	9.4195111E+002
2	0	0	1	3.330919915853883E+001	-9.4144279E-001	-9.4175571E-001	-1.006851586794099E+000	-5.5572921E-003	12	9.4820821E-004	9.3534711E+002
2	0	0	1	3.350919915348641E+001	-9.4244272E-001	-9.4280827E-001	-1.013949491987487E+000	-5.7616206E-003	12	9.5595996E-004	9.2983752E+002
2	0	0	1	3.370919914843398E+001	-9.4344258E-001	-9.4377613E-001	-1.020611404274459E+000	-5.9673595E-003	12	9.6322870E-004	9.2471643E+002
2	0	0	1	3.390919914338156E+001	-9.4444263E-001	-9.4477475E-001	-1.028273306297063E+000	-6.1744959E-003	12	9.7148668E-004	9.1879730E+002
2	0	0	1	3.410919913832913E+001	-9.4544268E-001	-9.4576389E-001	-1.035129916176301E+000	-6.3830940E-003	12	9.7898848E-004	9.1366687E+002
2	0	0	1	3.430919913327671E+001	-9.4644266E-001	-9.4677937E-001	-1.042436510484983E+000	-6.5931515E-003	12	9.8695734E-004	9.0823694E+002
2	0	0	1	3.450919912822428E+001	-9.4744265E-001	-9.4776958E-001	-1.051946657450017E+000	-6.8048639E-003	12	9.9700305E-004	9.0096735E+002
2	0	0	1	3.471919912291924E+001	-9.4849265E-001	-9.4879544E-001	-1.057358870288684E+000	-7.0292447E-003	12	1.0032173E-003	8.9732587E+002
2	0	0	1	3.492919911761419E+001	-9.4954246E-001	-9.4992369E-001	-1.064932321517173E+000	-7.2548836E-003	11	1.0116044E-003	8.9200385E+002
2	0	0	1	3.512919911256176E+001	-9.5054257E-001	-9.5090848E-001	-1.073631267724325E+000	-7.4711321E-003	11	1.0209251E-003	8.8569373E+002
2	0	0	1	3.532919910750934E+001	-9.5154256E-001	-9.5187426E-001	-1.080270902445863E+000	-7.6889554E-003	11	1.0282821E-003	8.8114404E+002
2	0	0	1	3.552919910245691E+001	-9.5254248E-001	-9.5288241E-001	-1.088733312511256E+000	-7.9082977E-003	11	1.0374348E-003	8.7522113E+002
2	0	0	1	3.572919909740449E+001	-9.5354253E-001	-9.5389998E-001	-1.096827864317461E+000	-8.1292475E-003	11	1.0462641E-003	8.6968976E+002
2	0	0	1	3.592919909235206E+001	-9.5454240E-001	-9.5488173E-001	-1.103986109625925E+000	-8.3517451E-003	11	1.0541761E-003	8.6494000E+002
2	0	0	1	3.612919908729964E+001	-9.5554233E-001	-9.5587176E-001	-1.111829263671314E+000	-8.5757002E-003	11	1.0627662E-003	8.5972888E+002
2	0	0	1	3.632919908224721E+001	-9.5654237E-001	-9.5686090E-001	-1.118664708714974E+000	-8.8011241E-003	11	1.0704065E-003	8.5535986E+002
2	0	0	1	3.652919907719479E+001	-9.5754242E-001	-9.5791781E-001	-1.126658324616834E+000	-9.0280687E-003	11	1.0792461E-003	8.5022919E+002
2	0	0	1	3.672919907214236E+001	-9.5854235E-001	-9.5891196E-001	-1.134831579440100E+000	-9.2566023E-003	11	1.0882035E-003	8.4498175E+002
2	0	0	1	3.692919906708994E+001	-9.5954239E-001	-9.5989275E-001	-1.142118782396356E+000	-9.4867172E-003	11	1.0963115E-003	8.4044916E+002
2	0	0	1	3.712919906203751E+001	-9.6054232E-001	-9.6085322E-001	-1.150705096867280E+000	-9.7184032E-003	11	1.1056587E-003	8.3501257E+002
2	0	0	1	3.732919905698509E+001	-9.6154231E-001	-9.6189207E-001	-1.158294835032866E+000	-9.9516660E-003	11	1.1141546E-003	8.3043805E+002
2	0	0	1	3.752919905193266E+001	-9.6254224E-001	-9.6287680E-001	-1.165973545801815E+000	-1.0186497E-002	11	1.1226889E-003	8.2581360E+002
2	0	0	1	3.772919904688024E+001	-9.6354216E-001	-9.6391994E-001	-1.174107046337486E+000	-1.0422874E-002	11	1.1317452E-003	8.2098132E+002
2	0	0	1	3.792919904182781E+001	-9.6454221E-001	-9.6487093E-001	-1.181590238412898E+000	-1.0660793E-002	11	1.1400820E-003	8.1658673E+002
2	0	0	1	3.812919903677539E+001	-9.6554226E-001	-9.6587688E-001	-1.189200254761170E+000	-1.0900286E-002	11	1.1486211E-003	8.1220709E+002
2	0	0	1	3.832919903172296E+001	-9.6654218E-001	-9.6690089E-001	-1.198197240267548E+000	-1.1141418E-002	11	1.1585379E-003	8.0696301E+002
2	0	0	1	3.852919902667054E+001	-9.6754217E-001	-9.6790689E-001	-1.205663943388702E+000	-1.1384198E-002	11	1.1669705E-003	8.0279993E+002
2	0	0	1	3.872919902161811E+001	-9.6854210E-001	-9.6889287E-001	-1.214647261311814E+000	-1.1628595E-002	11	1.1768631E-003	7.9767426E+002
2	0	0	1	3.892919901656569E+001	-9.6954209E-001	-9.6986169E-001	-1.222045092313399E+000	-1.1874610E-002	11	1.1852147E-003	7.9363824E+002
2	0	0	1	3.912919901151326E+001	-9.7054207E-001	-9.7085404E-001	-1.230239993261169E+000	-1.2122242E-002	11	1.1943835E-003	7.8915826E+002
2	0	0	1	3.932919900646084E+001	-9.7154206E-001	-9.7190875E-001	-1.239380329821994E+000	-1.2371557E-002	11	1.2045646E-003	7.8418927E+002
2	0	0	1	3.952919900140841E+001	-9.7254211E-001	-9.7289890E-001	-1.247027173215975E+000	-1.2622545E-002	11	1.2132314E-003	7.8017456E+002
2	0	0	1	3.972909899635852E+001	-9.7354203E-001	-9.7384876E-001	-1.255957271537804E+000	-1.2875099E-002	11	1.2231125E-003	7.7538367E+002
2	0	0	1	3.992909899130609E+001	-9.7454226E-001	-9.7486854E-001	-1.264763373997562E+000	-1.3129497E-002	11	1.2329781E-003	7.7079126E+002
2	0	0	0	4.012899898625619E+001	-9.7554195E-001	-9.7587562E-001	-1.272515809336625E+000	-1.3385500E-002	11	1.2418171E-003	7.6688684E+002
2	0	0	0	4.032899898120377E+001	-9.7654188E-001	-9.7688806E-001	-1.281500224488660E+000	-1.3643350E-002	11	1.2518823E-003	7.6230035E+002
2	0	0	0	4.052899897615134E+001	-9.7754192E-001	-9.7789937E-001	-1.290441239949594E+000	-1.3902941E-002	11	1.2619217E-003	7.5780231E+002
2	0	0	0	4.072899897109892E+001	-9.7854185E-001	-9.7887141E-001	-1.299160456153947E+000	-1.4164294E-002	11	1.2717110E-003	7.5346460E+002
2	0	0	0	4.092899896604649E+001	-9.7954190E-001	-9.7990066E-001	-1.309297524713600E+000	-1.4427505E-002	11	1.2829815E-003	7.4841711E+002
2	0	0	0	4.112899896099407E+001	-9.8054194E-001	-9.8087603E-001	-1.317562008677834E+000	-1.4692546E-002	11	1.2923650E-003	7.4446289E+002
2	0	0	0	4.132899895594164E+001	-9.8154181E-001	-9.8189372E-001	-1.326954953119056E+000	-1.4959383E-002	11	1.3029288E-003	7.3996008E+002
2	0	0	0	4.152899895088922E+001	-9.8254174E-001	-9.8287016E-001	-1.336393829899715E+000	-1.5228071E-002	11	1.3135016E-003	7.3546448E+002
2	0	0	0	4.172899894583679E+001	-9.8354173E-001	-9.8387927E-001	-1.345059628296395E+000	-1.5498600E-002	11	1.3233763E-003	7.3147632E+002
2	0	0	0	4.192899894078437E+001	-9.8454171E-001	-9.8489904E-001	-1.354740363247943E+000	-1.5770992E-002	11	1.3342825E-003	7.2700208E+002
2	0	0	0	4.212899893573194E+001	-9.8554176E-001	-9.8587537E-001	-1.364179165066641E+000	-1.6045289E-002	11	1.3449106E-003	7.2268762E+002
2	0	0	0	4.232899893067952E+001	-9.8654181E-001	-9.8689735E-001	-1.373427269122900E+000	-1.6321473E-002	11	1.3554317E-003	7.1856543E+002
2	0	0	0	4.252899892562709E+001	-9.8754174E-001	-9.8785043E-001	-1.383922936348347E+000	-1.6599612E-002	11	1.3671089E-003	7.1380450E+002
2	0	0	0	4.272899892057467E+001	-9.8854172E-001	-9.8882461E-001	-1.394040411190389E+000	-1.6879808E-002	11	1.3784615E-003	7.0932275E+002
2	0	0	0	4.292899891552224E+001	-9.8954159E-001	-9.8989207E-001	-1.403912663806123E+000	-1.7161999E-002	11	1.3897220E-003	7.0509521E+002
2	0	0	0	4.312899891046982E+001	-9.9054152E-001	-9.9085575E-001	-1.413544284243163E+000	-1.7446106E-002	11	1.4006185E-003	7.0097253E+002
2	0	0	0	4.332899890541739E+001	-9.9154162E-001	-9.9187446E-001	-1.422670468840061E+000	-1.7732138E-002	11	1.4111105E-003	6.9719202E+002
2	0	0	0	4.352899890036497E+001	-9.9254167E-001	-9.9285185E-001	-1.433368496182901E+000	-1.8020192E-002	11	1.4231226E-003	6.9267035E+002
2	0	0	0	4.372899889531254E+001	-9.9354154E-001	-9.9389923E-001	-1.443297228693552E+000	-1.8310236E-002	11	1.4344919E-003	6.8863098E+002
2	0	0	0	4.392899889026012E+001	-9.9454159E-001	-9.9484599E-001	-1.452965087563548E+000	-1.8602237E-002	11	1.4454764E-003	6.8470056E+002
2	0	0	0	4.412899888520769E+001	-9.9554151E-001	-9.9586672E-001	-1.463891713645587E+000	-1.8896274E-002	11	1.4578410E-003	6.8028717E+002
2	0	0	0	4.432899888015527E+001	-9.9654138E-001	-9.9682933E-001	-1.473223889597151E+000	-1.9192342E-002	11	1.4685527E-003	6.7663123E+002
2	0	0	0	4.452899887510284E+001	-9.9754149E-001	-9.9785024E-001	-1.483867953795425E+000	-1.9490464E-002	11	1.4806780E-003	6.7246564E+002
2	0	0	0	4.472899887005042E+001	-9.9854147E-001	-9.9888808E-001	-1.496131571546162E+000	-1.9790851E-002	11	1.4944680E-003	6.6764722E+002
2	0	0	0	4.492899886499799E+001	-9.9954152E-001	-9.9989724E-001	-1.505403540994712E+000	-2.0093413E-002	11	1.5052488E-003	6.6420544E+002
2	0	0	0	4.512899885994557E+001	-1.0005414E+000	-1.0008703E+000	-1.516571677266672E+000	-2.0398019E-002	11	1.5178917E-003	6.5995587E+002
2	0	0	0	4.532899885489314E+001	-1.0015415E+000	-1.0018860E+000	-1.527161821275273E+000	-2.0704808E-002	11	1.5300420E-003	6.5604443E+002
2	0	0	0	4.552899884984072E+001	-1.0025414E+000	-1.0028962E+000	-1.538224300661060E+000	-2.1013789E-002	11	1.5426793E-003	6.5198303E+002
2	0	0	0	4.572899884478829E+001	-1.0035414E+000	-1.0038714E+000	-1.550049443651085E+000	-2.1325007E-002	11	1.5560504E-003	6.4763831E+002
2	0	0	0	4.592899883973587E+001	-1.0045413E+000	-1.0048542E+000	-1.560646809662895E+000	-2.1638468E-002	11	1.5682225E-003	6.4387036E+002
2	0	0	0	4.612899883468344E+001	-1.0055413E+000	-1.0058687E+000	-1.572389309013651E+000	-2.1954207E-002	11	1.5816172E-003	6.3970715E+002
2	0	0	0	4.632899882963102E+001	-1.0065414E+000	-1.0068928E+000	-1.585770668846273E+000	-2.2272378E-002	11	1.5967011E-003	6.3495490E+002
2	0	0	0	4.652899882457859E+001	-1.0075414E+000	-1.0078893E+000	-1.597926415300286E+000	-2.2593174E-002	11	1.6105329E-003	6.3074823E+002
2	0	0	0	4.672899881952617E+001	-1.0085412E+000	-1.0088814E+000	-1.609967921039006E+000	-2.2916360E-002	11	1.6242667E-003	6.2664691E+002
2	0	0	0	4.692899881447374E+001	-1.0095412E+000	-1.0099097E+000	-1.622864573568847E+000	-2.3242002E-002	11	1.6389467E-003	6.2230072E+002
2	0	0	0	4.712899880942132E+001	-1.0105412E+000	-1.0108799E+000	-1.636236867903307E+000	-2.3570292E-002	11	1.6540389E-003	6.1780780E+002
2	0	0	0	4.732899880436889E+001	-1.0115411E+000	-1.0119058E+000	-1.650448956490923E+000	-2.3901319E-002	11	1.6700989E-003	6.1310944E+002
2	0	0	0	4.752899879931647E+001	-1.0125412E+000	-1.0128568E+000	-1.662652068617263E+000	-2.4235016E-002	11	1.6840285E-003	6.0918146E+002
2	0	0	0	4.772899879426404E+001	-1.0135412E+000	-1.0138078E+000	-1.676005187573207E+000	-2.4571307E-002	11	1.6991470E-003	6.0489539E+002
2	0	0	0	4.792899878921162E+001	-1.0145411E+000	-1.0148655E+000	-1.690011717142568E+000	-2.4910279E-002	11	1.7151346E-003	6.0050800E+002
2	0	0	0	4.812899878415919E+001	-1.0155411E+000	-1.0158747E+000	-1.702875675764489E+000	-2.5252009E-002	11	1.7299084E-003	5.9656427E+002
2	0	0	0	4.832899877910677E+001	-1.0165410E+000	-1.0168490E+000	-1.717056064125222E+000	-2.5596425E-002	11	1.7459869E-003	5.9220490E+002
2	0	0	1	4.852899877405434E+001	-1.0175413E+000	-1.0178807E+000	-1.731049011661000E+000	-2.5943644E-002	11	1.7620013E-003	5.8801379E+002
2	0	0	1	4.872899876900192E+001	-1.0185413E+000	-1.0188531E+000	-1.744791588323110E+000	-2.6293676E-002	11	1.7776863E-003	5.8393970E+002
2	0	0	1	4.892879876395455E+001	-1.0195408E+000	-1.0198573E+000	-1.760220244636798E+000	-2.6646219E-002	11	1.7951734E-003	5.7939185E+002
2	0	0	1	4.912879875890212E+001	-1.0205406E+000	-1.0208790E+000	-1.774174542142790E+000	-2.7002027E-002	11	1.8112176E-003	5.7541071E+002
2	0	0	1	4.932879875384970E+001	-1.0215409E+000	-1.0218260E+000	-1.789082812106088E+000	-2.7360763E-002	11	1.8281314E-003	5.7114520E+002
2	0	0	1	4.952879874879727E+001	-1.0225409E+000	-1.0228715E+000	-1.804295159386390E+000	-2.7722528E-002	11	1.8455621E-003	5.6690918E+002
2	0	0	1	4.972879874374485E+001	-1.0235409E+000	-1.0238763E+000	-1.819810295219872E+000	-2.8087376E-002	11	1.8632606E-003	5.6262805E+002
2	0	0	1	4.992879873869242E+001	-1.0245409E+000	-1.0248569E+000	-1.836050766665922E+000	-2.8455395E-002	11	1.8816893E-003	5.5818549E+002
2	0	0	1	5.012879873364000E+001	-1.0255409E+000	-1.0258715E+000	-1.851663071653739E+000	-2.8826563E-002	11	1.8995684E-003	5.5402710E+002
2	0	0	1	5.032879872858757E+001	-1.0265410E+000	-1.0268149E+000	-1.867735825124239E+000	-2.9200908E-002	11	1.9178190E-003	5.4976453E+002
2	0	0	1	5.052879872353515E+001	-1.0275409E+000	-1.0278263E+000	-1.884546507090800E+000	-2.9578546E-002	11	1.9369865E-003	5.4539716E+002
2	0	0	1	5.072879871848272E+001	-1.0285408E+000	-1.0288461E+000	-1.900409119351519E+000	-2.9959481E-002	11	1.9552286E-003	5.4138141E+002
2	0	0	1	5.092879871343030E+001	-1.0295408E+000	-1.0298489E+000	-1.917559788289928E+000	-3.0343730E-002	11	1.9747969E-003	5.3706226E+002
2	0	0	1	5.112879870837787E+001	-1.0305407E+000	-1.0308475E+000	-1.935307391376445E+000	-3.0731445E-002	11	1.9950068E-003	5.3265314E+002
2	0	0	1	5.132879870332545E+001	-1.0315408E+000	-1.0318440E+000	-1.951792068458470E+000	-3.1122621E-002	11	2.0139450E-003	5.2866492E+002
2	0	0	1	5.152879869827302E+001	-1.0325407E+000	-1.0328373E+000	-1.970484809236186E+000	-3.1517319E-002	11	2.0351901E-003	5.2415387E+002
2	0	0	1	5.172879869322060E+001	-1.0335407E+000	-1.0338571E+000	-1.988978969925790E+000	-3.1915691E-002	11	2.0563200E-003	5.1979291E+002
2	0	0	1	5.192879868816817E+001	-1.0345407E+000	-1.0348388E+000	-2.008152928211796E+000	-3.2317858E-002	11	2.0781145E-003	5.1531873E+002
2	0	0	1	5.212879868311575E+001	-1.0355407E+000	-1.0358342E+000	-2.028341470476313E+000	-3.2723945E-002	11	2.1010255E-003	5.1068039E+002
2	0	0	1	5.232879867806332E+001	-1.0365406E+000	-1.0368550E+000	-2.047022279275936E+000	-3.3133935E-002	11	2.1224653E-003	5.0651865E+002
2	0	0	1	5.252879867301090E+001	-1.0375406E+000	-1.0378590E+000	-2.067791510094590E+000	-3.3547916E-002	11	2.1460759E-003	5.0191663E+002
2	0	0	1	5.272879866795847E+001	-1.0385406E+000	-1.0388407E+000	-2.089498333143002E+000	-3.3966072E-002	11	2.1706559E-003	4.9717227E+002
2	0	0	1	5.292879866290605E+001	-1.0395405E+000	-1.0399123E+000	-2.108945795197602E+000	-3.4388389E-002	11	2.1931187E-003	4.9309583E+002
2	0	0	1	5.312879865785362E+001	-1.0405406E+000	-1.0408621E+000	-2.130857784258815E+000	-3.4814853E-002	11	2.2179291E-003	4.8847092E+002
2	0	0	1	5.332879865280120E+001	-1.0415405E+000	-1.0418481E+000	-2.152496641218804E+000	-3.5245612E-002	11	2.2425745E-003	4.8401843E+002
2	0	0	1	5.352879864774877E+001	-1.0425406E+000	-1.0428604E+000	-2.173807182076846E+000	-3.5680678E-002	11	2.2669774E-003	4.7973914E+002
2	0	0	1	5.372879864269635E+001	-1.0435405E+000	-1.0438539E+000	-2.196667868922759E+000	-3.6120161E-002	11	2.2930002E-003	4.7519876E+002
2	0	0	1	5.392879863764392E+001	-1.0445405E+000	-1.0448576E+000	-2.218105045119781E+000	-3.6564108E-002	11	2.3176039E-003	4.7105869E+002
2	0	0	1	5.412879863259150E+001	-1.0455403E+000	-1.0458223E+000	-2.241949309330951E+000	-3.7012588E-002	11	2.3446805E-003	4.6647900E+002
2	0	0	1	5.432879862753907E+001	-1.0465404E+000	-1.0468390E+000	-2.265619478106085E+000	-3.7465777E-002	11	2.3717389E-003	4.6205420E+002
2	0	0	1	5.452879862248665E+001	-1.0475404E+000	-1.0478302E+000	-2.288446868442477E+000	-3.7923656E-002	11	2.3979037E-003	4.5787833E+002
2	0	0	1	5.472879861743422E+001	-1.0485405E+000	-1.0488467E+000	-2.312855731450914E+000	-3.8386323E-002	11	2.4258310E-003	4.5348557E+002
2	0	0	1	5.492879861238180E+001	-1.0495404E+000	-1.0498495E+000	-2.338745421748996E+000	-3.8853984E-002	11	2.4553307E-003	4.4889432E+002
2	0	0	1	5.512879860732937E+001	-1.0505403E+000	-1.0508641E+000	-2.363307920020578E+000	-3.9326709E-002	11	2.4835155E-003	4.4465814E+002
2	0	0	1	5.532879860227695E+001	-1.0515403E+000	-1.0518690E+000	-2.389347564606439E+000	-3.9804447E-002	11	2.5132806E-003	4.4023276E+002
2	0	0	1	5.552879859722452E+001	-1.0525402E+000	-1.0528263E+000	-2.414640896326419E+000	-4.0287320E-002	11	2.5421975E-003	4.3601776E+002
2	0	0	1	5.572879859217210E+001	-1.0535402E+000	-1.0538908E+000	-2.441836821603784E+000	-4.0775448E-002	11	2.5734294E-003	4.3159756E+002
2	0	0	1	5.592879858711967E+001	-1.0545403E+000	-1.0548661E+000	-2.468830746250077E+000	-4.1268986E-002	11	2.6042857E-003	4.2727356E+002
2	0	0	1	5.612879858206725E+001	-1.0555402E+000	-1.0558422E+000	-2.495319530503018E+000	-4.1767925E-002	11	2.6346636E-003	4.2312903E+002
2	0	0	1	5.632879857701482E+001	-1.0565403E+000	-1.0568695E+000	-2.524531427728618E+000	-4.2272508E-002	11	2.6681002E-003	4.1863986E+002
2	0	0	1	5.652879857196240E+001	-1.0575402E+000	-1.0578555E+000	-2.553437549156257E+000	-4.2782787E-002	11	2.7011679E-003	4.1428680E+002
2	0	0	1	5.672879856690997E+001	-1.0585401E+000	-1.0588944E+000	-2.580950097381539E+000	-4.3298710E-002	11	2.7329535E-003	4.1027310E+002
2	0	0	1	5.692879856185755E+001	-1.0595402E+000	-1.0598611E+000	-2.614376224019900E+000	-4.3820731E-002	11	2.7708756E-003	4.0539731E+002
2	0	0	1	5.712879855680512E+001	-1.0605402E+000	-1.0608555E+000	-2.644038916056531E+000	-4.4349112E-002	11	2.8049434E-003	4.0122537E+002
2	0	0	1	5.732879855175270E+001	-1.0615402E+000	-1.0618435E+000	-2.675040657431168E+000	-4.4883560E-002	11	2.8404745E-003	3.9694482E+002
2	0	0	1	5.752869854670280E+001	-1.0625401E+000	-1.0628844E+000	-2.707515501619769E+000	-4.5424040E-002	11	2.8777760E-003	3.9256818E+002
2	0	0	1	5.772869854165037E+001	-1.0635400E+000	-1.0638458E+000	-2.739494569657837E+000	-4.5971293E-002	11	2.9143996E-003	3.8833652E+002
2	0	0	1	5.792859853660048E+001	-1.0645397E+000	-1.0648612E+000	-2.772807301079023E+000	-4.6524800E-002	11	2.9526548E-003	3.8403720E+002
2	0	0	1	5.812859853154805E+001	-1.0655398E+000	-1.0658505E+000	-2.806739916522119E+000	-4.7085293E-002	11	2.9915650E-003	3.7974680E+002
2	0	0	0	5.832859852649563E+001	-1.0665400E+000	-1.0668459E+000	-2.845797517909213E+000	-4.7653161E-002	11	3.0360273E-003	3.7488467E+002
2	0	0	0	5.852859852144320E+001	-1.0675400E+000	-1.0678403E+000	-2.879644657749164E+000	-4.8228260E-002	11	3.0750008E-003	3.7082364E+002
2	0	0	0	5.872859851639078E+001	-1.0685400E+000	-1.0688612E+000	-2.914295095570239E+000	-4.8810266E-002	11	3.1149772E-003	3.6676492E+002
2	0	0	0	5.892859851133835E+001	-1.0695399E+000	-1.0698174E+000	-2.951198084436177E+000	-4.9399436E-002	11	3.1572431E-003	3.6250275E+002
2	0	0	0	5.912859850628593E+001	-1.0705398E+000	-1.0708519E+000	-2.988296023690370E+000	-4.9995918E-002	11	3.2000225E-003	3.5834866E+002
2	0	0	0	5.932859850123350E+001	-1.0715398E+000	-1.0718697E+000	-3.025615794808012E+000	-5.0599854E-002	11	3.2430659E-003	3.5426498E+002
2	0	0	0	5.952859849618108E+001	-1.0725398E+000	-1.0728217E+000	-3.065298393757288E+000	-5.1211543E-002	11	3.2885186E-003	3.4998932E+002
2	0	0	0	5.972859849112865E+001	-1.0735397E+000	-1.0738722E+000	-3.104120676716164E+000	-5.1831070E-002	11	3.3334289E-003	3.4595053E+002
2	0	0	0	5.992859848607623E+001	-1.0745398E+000	-1.0748518E+000	-3.143221888682746E+000	-5.2458383E-002	11	3.3784974E-003	3.4195859E+002
2	0	0	0	6.012859848102380E+001	-1.0755397E+000	-1.0758058E+000	-3.184720517286084E+000	-5.3093717E-002	11	3.4261406E-003	3.3780225E+002
2	0	0	0	6.032859847597138E+001	-1.0765398E+000	-1.0768679E+000	-3.223867864261397E+000	-5.3737130E-002	11	3.4716800E-003	3.3402979E+002
2	0	0	0	6.052859847091895E+001	-1.0775398E+000	-1.0778348E+000	-3.266115035228182E+000	-5.4388750E-002	11	3.5203325E-003	3.3000516E+002
2	0	0	0	6.072859846586653E+001	-1.0785397E+000	-1.0788102E+000	-3.309266969325066E+000	-5.5048928E-002	11	3.5700710E-003	3.2599673E+002
2	0	0	0	6.092859846081410E+001	-1.0795397E+000	-1.0797917E+000	-3.351797015319619E+000	-5.5717681E-002	11	3.6192425E-003	3.2215305E+002
2	0	0	0	6.112859845576168E+001	-1.0805397E+000	-1.0808624E+000	-3.396069895822428E+000	-5.6395110E-002	11	3.6706843E-003	3.1826859E+002
2	0	0	0	6.132859845070925E+001	-1.0815396E+000	-1.0818104E+000	-3.441489585605616E+000	-5.7081487E-002	11	3.7230391E-003	3.1434363E+002
2	0	0	0	6.152859844565683E+001	-1.0825396E+000	-1.0828141E+000	-3.486528406067500E+000	-5.7776965E-002	11	3.7752620E-003	3.1057086E+002
2	0	0	0	6.172859844060440E+001	-1.0835396E+000	-1.0838476E+000	-3.532801721169008E+000	-5.8481544E-002	11	3.8290189E-003	3.0679550E+002
2	0	0	0	6.192859843555198E+001	-1.0845395E+000	-1.0848484E+000	-3.578316739120453E+000	-5.9195273E-002	11	3.8819313E-003	3.0317282E+002
2	0	0	0	6.212859843049955E+001	-1.0855396E+000	-1.0858353E+000	-3.627449427974227E+000	-5.9918556E-002	11	3.9388128E-003	2.9933853E+002
2	0	0	0	6.232859842544713E+001	-1.0865395E+000	-1.0868330E+000	-3.676442051555568E+000	-6.0651615E-002	11	3.9956784E-003	2.9562088E+002
2	0	0	0	6.252859842039470E+001	-1.0875396E+000	-1.0878612E+000	-3.725491481809936E+000	-6.1394494E-002	11	4.0528174E-003	2.9200473E+002
2	0	0	0	6.272859841534228E+001	-1.0885395E+000	-1.0888491E+000	-3.777056357352379E+000	-6.2147450E-002	11	4.1126441E-003	2.8827982E+002
2	0	0	0	6.292859841028985E+001	-1.0895395E+000	-1.0898180E+000	-3.826602858953727E+000	-6.2910490E-002	11	4.1703009E-003	2.8480038E+002
2	0	0	0	6.312859840523743E+001	-1.0905396E+000	-1.0907689E+000	-3.878802658681686E+000	-6.3683696E-002	11	4.2308774E-003	2.8121280E+002
2	0	0	0	6.332859840018500E+001	-1.0915394E+000	-1.0918926E+000	-3.932109380018414E+000	-6.4467430E-002	11	4.2934413E-003	2.7768622E+002
2	0	0	0	6.352859839513258E+001	-1.0925393E+000	-1.0928681E+000	-3.983846083114500E+000	-6.5261714E-002	11	4.3538185E-003	2.7432489E+002
2	0	0	0	6.372859839008015E+001	-1.0935392E+000	-1.0938102E+000	-4.037256195600602E+000	-6.6066571E-002	11	4.4159922E-003	2.7092911E+002
2	0	0	0	6.392859838502773E+001	-1.0945393E+000	-1.0948099E+000	-4.091789164206602E+000	-6.6882163E-002	11	4.4797314E-003	2.6756262E+002
2	0	0	0	6.412859837997530E+001	-1.0955393E+000	-1.0958331E+000	-4.145316751466879E+000	-6.7708582E-002	11	4.5425752E-003	2.6435449E+002
2	0	0	0	6.432859837492288E+001	-1.0965394E+000	-1.0968220E+000	-4.200178231782104E+000	-6.8545863E-002	11	4.6068481E-003	2.6113702E+002
2	0	0	0	6.452859836987045E+001	-1.0975393E+000	-1.0978439E+000	-4.255261832016117E+000	-6.9394127E-002	11	4.6716132E-003	2.5799680E+002
2	0	0	0	6.472859836481803E+001	-1.0985392E+000	-1.0988203E+000	-4.315731654463164E+000	-7.0254028E-002	11	4.7422135E-003	2.5460812E+002
2	0	0	0	6.492859835976560E+001	-1.0995392E+000	-1.0998179E+000	-4.372866175714003E+000	-7.1125634E-002	11	4.8093563E-003	2.5150961E+002
2	0	0	0	6.512859835471318E+001	-1.1005391E+000	-1.1008133E+000	-4.430384736313847E+000	-7.2008781E-002	11	4.8770262E-003	2.4846899E+002
2	0	0	0	6.532859834966075E+001	-1.1015393E+000	-1.1018586E+000	-4.496573861156172E+000	-7.2904430E-002	11	4.9545886E-003	2.4504404E+002
2	0	0	0	6.552859834460833E+001	-1.1025393E+000	-1.1028264E+000	-4.558033906649815E+000	-7.3812552E-002	11	5.0267200E-003	2.4195221E+002
2	0	0	0	6.572859833955590E+001	-1.1035392E+000	-1.1038430E+000	-4.616016485253162E+000	-7.4732728E-002	11	5.0953575E-003	2.3913324E+002
2	0	0	0	6.592859833450348E+001	-1.1045392E+000	-1.1048098E+000	-4.676465366838187E+000	-7.5664759E-002	11	5.1666046E-003	2.3624889E+002
2	0	0	0	6.612859832945105E+001	-1.1055391E+000	-1.1058794E+000	-4.735952041958754E+000	-7.6608755E-002	11	5.2373921E-003	2.3350731E+002
2	0	0	1	6.632849832440115E+001	-1.1065387E+000	-1.1067761E+000	-4.828326145021890E+000	-7.7567242E-002	11	5.3438758E-003	2.2922563E+002
2	0	0	1	6.652849831934873E+001	-1.1075391E+000	-1.1078491E+000	-4.906973685078938E+000	-7.8543879E-002	11	5.4361867E-003	2.2577034E+002
2	0	0	1	6.672849831429630E+001	-1.1085392E+000	-1.1088021E+000	-4.966842079371027E+000	-7.9534084E-002	11	5.5072447E-003	2.2324086E+002
2	0	0	1	6.692839830924640E+001	-1.1095388E+000	-1.1098014E+000	-5.029900589166438E+000	-8.0536105E-002	11	5.5821906E-003	2.2064082E+002
2	0	0	1	6.712849830419145E+001	-1.1105394E+000	-1.1107965E+000	-5.091534452884403E+000	-8.1551522E-002	11	5.6556584E-003	2.1816536E+002
2	0	0	1	6.732839829914155E+001	-1.1115390E+000	-1.1118371E+000	-5.156189527708932E+000	-8.2578532E-002	11	5.7328432E-003	2.1563155E+002
2	0	0	1	6.752839829408913E+001	-1.1125388E+000	-1.1128092E+000	-5.220891978769076E+000	-8.3619110E-002	11	5.8098566E-003	2.1314542E+002
2	0	0	1	6.772839828903670E+001	-1.1135389E+000	-1.1137813E+000	-5.281750805355003E+000	-8.4672168E-002	11	5.8827153E-003	2.1087350E+002
2	0	0	1	6.792839828398428E+001	-1.1145389E+000	-1.1148615E+000	-5.349827171588423E+000	-8.5738197E-002	11	5.9643164E-003	2.0839206E+002
2	0	0	1	6.812839827893185E+001	-1.1155388E+000	-1.1157966E+000	-5.434437725515592E+000	-8.6819455E-002	11	6.0637267E-003	2.0531960E+002
2	0	0	1	6.832839827387943E+001	-1.1165389E+000	-1.1168175E+000	-5.501569397190011E+000	-8.7916039E-002	11	6.1442489E-003	2.0299980E+002
2	0	0	1	6.852839826882700E+001	-1.1175388E+000	-1.1178426E+000	-5.573427681175502E+000	-8.9026369E-002	11	6.2302146E-003	2.0056644E+002
2	0	0	1	6.872839826377458E+001	-1.1185389E+000	-1.1188241E+000	-5.639024343924454E+000	-9.0150453E-002	11	6.3090767E-003	1.9840739E+002
2	0	0	1	6.892839825872215E+001	-1.1195388E+000	-1.1197815E+000	-5.704883495358395E+000	-9.1287747E-002	11	6.3882228E-003	1.9628473E+002
2	0	0	1	6.912839825366973E+001	-1.1205388E+000	-1.1208330E+000	-5.770207005935184E+000	-9.2438124E-002	11	6.4674388E-003	1.9424486E+002
2	0	0	1	6.932839824861730E+001	-1.1215388E+000	-1.1218718E+000	-5.831581983368935E+000	-9.3601108E-002	11	6.5422878E-003	1.9237865E+002
2	0	0	1	6.952839824356488E+001	-1.1225387E+000	-1.1228536E+000	-5.897444901856971E+000	-9.4776846E-002	11	6.6219675E-003	1.9039664E+002
2	0	0	1	6.972839823851245E+001	-1.1235386E+000	-1.1237918E+000	-5.960026887910729E+000	-9.5965452E-002	11	6.6978293E-003	1.8855482E+002
2	0	0	1	6.992839823346003E+001	-1.1245387E+000	-1.1248337E+000	-6.022269150432258E+000	-9.7166494E-002	11	6.7740511E-003	1.8677905E+002
2	0	0	1	7.012839822840760E+001	-1.1255386E+000	-1.1258346E+000	-6.088557206888311E+000	-9.8380446E-002	11	6.8547083E-003	1.8490991E+002
2	0	0	1	7.032839822335518E+001	-1.1265386E+000	-1.1268756E+000	-6.159983259040764E+000	-9.9608146E-002	11	6.9415350E-003	1.8293486E+002
2	0	0	1	7.052839821830275E+001	-1.1275386E+000	-1.1278158E+000	-6.245559183107765E+000	-1.0085161E-001	11	7.0438404E-003	1.8057884E+002
2	0	0	1	7.072839821325033E+001	-1.1285386E+000	-1.1288377E+000	-6.311597113909357E+000	-1.0211037E-001	11	7.1247686E-003	1.7885135E+002
2	0	0	1	7.092839820819790E+001	-1.1295385E+000	-1.1298342E+000	-6.373331849402035E+000	-1.0338166E-001	11	7.2008083E-003	1.7727528E+002
2	0	0	1	7.112839820314548E+001	-1.1305386E+000	-1.1308339E+000	-6.430098574718397E+000	-1.0466489E-001	11	7.2713732E-003	1.7586571E+002
2	0	0	1	7.132839819809305E+001	-1.1315386E+000	-1.1318632E+000	-6.508018762549028E+000	-1.0596154E-001	11	7.3661874E-003	1.7391824E+002
2	0	0	1	7.152839819304063E+001	-1.1325384E+000	-1.1328554E+000	-6.585606275772534E+000	-1.0727391E-001	11	7.4605397E-003	1.7201991E+002
2	0	0	1	7.172839818798820E+001	-1.1335384E+000	-1.1338774E+000	-6.665997354622107E+000	-1.0860214E-001	11	7.5584236E-003	1.7009869E+002
2	0	0	1	7.192839818293578E+001	-1.1345384E+000	-1.1348368E+000	-6.763525566546534E+000	-1.0994802E-001	11	7.6754978E-003	1.6778777E+002
2	0	0	1	7.212839817788336E+001	-1.1355383E+000	-1.1358734E+000	-6.869692804051073E+000	-1.1131442E-001	11	7.8031016E-003	1.6534560E+002
2	0	0	1	7.232839817283093E+001	-1.1365384E+000	-1.1368405E+000	-6.972692297497019E+000	-1.1270159E-001	11	7.9268385E-003	1.6304182E+002
2	0	0	1	7.252839816777851E+001	-1.1375384E+000	-1.1378645E+000	-7.049783915011005E+000	-1.1410675E-001	11	8.0216983E-003	1.6140416E+002
2	0	0	1	7.272839816272608E+001	-1.1385384E+000	-1.1388344E+000	-7.116307212584676E+000	-1.1552635E-001	11	8.1042955E-003	1.6003165E+002
2	0	0	1	7.292839815767366E+001	-1.1395383E+000	-1.1398648E+000	-7.187104938387037E+000	-1.1695959E-001	11	8.1923278E-003	1.5859860E+002
2	0	0	1	7.312839815262123E+001	-1.1405382E+000	-1.1408654E+000	-7.252942202177742E+000	-1.1840657E-001	11	8.2746316E-003	1.5729692E+002
2	0	0	1	7.332839814756881E+001	-1.1415383E+000	-1.1418428E+000	-7.316320923112675E+000	-1.1986642E-001	11	8.3540883E-003	1.5606790E+002
2	0	0	1	7.352839814251638E+001	-1.1425383E+000	-1.1428543E+000	-7.380890828952216E+000	-1.2133898E-001	11	8.4352829E-003	1.5483961E+002
2	0	0	1	7.372839813746396E+001	-1.1435384E+000	-1.1438158E+000	-7.446517286792627E+000	-1.2282466E-001	11	8.5174441E-003	1.5360413E+002
2	0	0	1	7.392839813241153E+001	-1.1445383E+000	-1.1448641E+000	-7.509240000967026E+000	-1.2432312E-001	11	8.5970592E-003	1.5246071E+002
2	0	0	1	7.412839812735911E+001	-1.1455382E+000	-1.1458595E+000	-7.571677207946777E+000	-1.2583400E-001	11	8.6760782E-003	1.5133496E+002
2	0	0	1	7.432839812230668E+001	-1.1465381E+000	-1.1468784E+000	-7.647314261011516E+000	-1.2735876E-001	11	8.7705394E-003	1.4997139E+002
2	0	0	1	7.452839811725426E+001	-1.1475381E+000	-1.1478081E+000	-7.754853795242411E+000	-1.2890260E-001	11	8.9010838E-003	1.4801157E+002
2	0	0	1	7.472839811220183E+001	-1.1485381E+000	-1.1488215E+000	-7.811576927059633E+000	-1.3046208E-001	11	8.9741070E-003	1.4706653E+002
2	0	0	1	7.492839810714941E+001	-1.1495382E+000	-1.1498158E+000	-7.868864271511015E+000	-1.3203302E-001	11	9.0477448E-003	1.4612221E+002
2	0	0	1	7.512839810209698E+001	-1.1505383E+000	-1.1508316E+000	-7.930575356537653E+000	-1.3361585E-001	11	9.1267563E-003	1.4511325E+002
2	0	0	1	7.532829809704708E+001	-1.1515379E+000	-1.1517907E+000	-7.999053321087956E+000	-1.3521098E-001	11	9.2132352E-003	1.4399088E+002
2	0	0	1	7.552829809199466E+001	-1.1525381E+000	-1.1528944E+000	-8.102933865507460E+000	-1.3682406E-001	11	9.3418267E-003	1.4228110E+002
2	0	0	1	7.572829808694223E+001	-1.1535383E+000	-1.1538529E+000	-8.162390418748203E+000	-1.3845345E-001	11	9.4181979E-003	1.4136214E+002
2	0	0	1	7.592819808189233E+001	-1.1545379E+000	-1.1548491E+000	-8.300193705345684E+000	-1.4010131E-001	11	9.5854709E-003	1.3913519E+002
2	0	0	0	7.612819807683991E+001	-1.1555381E+000	-1.1558361E+000	-8.402903630484815E+000	-1.4177519E-001	11	9.7123794E-003	1.3755199E+002
2	0	0	0	7.632819807178748E+001	-1.1565380E+000	-1.1568823E+000	-8.485819504915156E+000	-1.4346717E-001	11	9.8170945E-003	1.3633124E+002
2	0	0	0	7.652819806673506E+001	-1.1575379E+000	-1.1578683E+000	-8.561588528137321E+000	-1.4517476E-001	11	9.9131912E-003	1.3523988E+002
2	0	0	0	7.672819806168263E+001	-1.1585379E+000	-1.1588160E+000	-8.637255691819721E+000	-1.4689757E-001	11	1.0008990E-002	1.3416484E+002
2	0	0	0	7.692819805663021E+001	-1.1595379E+000	-1.1598200E+000	-8.709660471093887E+000	-1.4863525E-001	11	1.0101638E-002	1.3316478E+002
2	0	0	0	7.712819805157778E+001	-1.1605378E+000	-1.1608185E+000	-8.782850530682794E+000	-1.5038732E-001	11	1.0195295E-002	1.3216876E+002
2	0	0	0	7.732819804652536E+001	-1.1615379E+000	-1.1618489E+000	-8.859302591777436E+000	-1.5215451E-001	11	1.0293171E-002	1.3114452E+002
2	0	0	0	7.752819804147293E+001	-1.1625379E+000	-1.1628624E+000	-8.936460233802450E+000	-1.5393707E-001	11	1.0391874E-002	1.3012563E+002
2	0	0	0	7.772819803642051E+001	-1.1635377E+000	-1.1638641E+000	-9.045602909358969E+000	-1.5573819E-001	11	1.0527853E-002	1.2866629E+002
2	0	0	0	7.792819803136808E+001	-1.1645378E+000	-1.1648023E+000	-9.152929434835784E+000	-1.5756162E-001	11	1.0661353E-002	1.2726006E+002
2	0	0	0	7.812819802631566E+001	-1.1655377E+000	-1.1658411E+000	-9.233539770182020E+000	-1.5940326E-001	11	1.0764840E-002	1.2626156E+002
2	0	0	0	7.832819802126323E+001	-1.1665376E+000	-1.1668451E+000	-9.314743300076259E+000	-1.6126101E-001	11	1.0868862E-002	1.2526862E+002
2	0	0	0	7.852819801621081E+001	-1.1675377E+000	-1.1678268E+000	-9.400468793382988E+000	-1.6313550E-001	11	1.0978119E-002	1.2423070E+002
2	0	0	0	7.872819801115838E+001	-1.1685376E+000	-1.1688137E+000	-9.520920997979658E+000	-1.6503085E-001	11	1.1128183E-002	1.2276267E+002
2	0	0	0	7.892819800610596E+001	-1.1695377E+000	-1.1698440E+000	-9.619418263773269E+000	-1.6694808E-001	11	1.1253219E-002	1.2161276E+002
2	0	0	0	7.912819800105353E+001	-1.1705376E+000	-1.1708491E+000	-9.694420876146189E+000	-1.6888233E-001	11	1.1350703E-002	1.2077556E+002
2	0	0	0	7.932819799600111E+001	-1.1715376E+000	-1.1718550E+000	-9.821870049854510E+000	-1.7083693E-001	11	1.1509807E-002	1.1931078E+002
2	0	0	0	7.952819799094868E+001	-1.1725377E+000	-1.1728357E+000	-9.971512096606716E+000	-1.7281947E-001	11	1.1694945E-002	1.1761864E+002
2	0	0	0	7.972819798589626E+001	-1.1735376E+000	-1.1738617E+000	-1.006782182314501E+001	-1.7482652E-001	11	1.1818231E-002	1.1659541E+002
2	0	0	0	7.992819798084383E+001	-1.1745374E+000	-1.1748519E+000	-1.014832584380830E+001	-1.7685114E-001	11	1.1922779E-002	1.1576805E+002
2	0	0	0	8.012819797579141E+001	-1.1755375E+000	-1.1758379E+000	-1.023544695094869E+001	-1.7889251E-001	11	1.2035226E-002	1.1487900E+002
2	0	0	0	8.032819797073898E+001	-1.1765374E+000	-1.1768544E+000	-1.033172769861426E+001	-1.8095218E-001	11	1.2158939E-002	1.1390683E+002
2	0	0	0	8.052819796568656E+001	-1.1775374E+000	-1.1778244E+000	-1.041784369141334E+001	-1.8303008E-001	11	1.2270390E-002	1.1305836E+002
2	0	0	0	8.072819796063413E+001	-1.1785374E+000	-1.1788292E+000	-1.049580073011975E+001	-1.8512431E-001	11	1.2372756E-002	1.1231436E+002
2	0	0	0	8.092819795558171E+001	-1.1795374E+000	-1.1798460E+000	-1.066575904166887E+001	-1.8724275E-001	11	1.2583953E-002	1.1061998E+002
2	0	0	0	8.112819795052928E+001	-1.1805375E+000	-1.1808625E+000	-1.088165745166155E+001	-1.8940103E-001	11	1.2849742E-002	1.0851863E+002
2	0	0	0	8.133819794522424E+001	-1.1815873E+000	-1.1819342E+000	-1.099069309331026E+001	-1.9170213E-001	11	1.2990276E-002	1.0753955E+002
2	0	0	0	8.154819793991919E+001	-1.1826373E+000	-1.1829373E+000	-1.108957855548717E+001	-1.9402394E-001	10	1.3118275E-002	1.0667107E+002
2	0	0	0	8.174819793486677E+001	-1.1836374E+000	-1.1839485E+000	-1.122720971994124E+001	-1.9625865E-001	10	1.3292438E-002	1.0545350E+002
2	0	0	0	8.194819792981434E+001	-1.1846374E+000	-1.1849546E+000	-1.134105752317276E+001	-1.9851877E-001	10	1.3438639E-002	1.0448361E+002
2	0	0	0	8.214819792476192E+001	-1.1856374E+000	-1.1859181E+000	-1.143345873040948E+001	-2.0079908E-001	10	1.3559146E-002	1.0372348E+002
2	0	0	0	8.234819791970949E+001	-1.1866372E+000	-1.1869411E+000	-1.153367731103552E+001	-2.0309873E-001	10	1.3689796E-002	1.0291090E+002
2	0	0	0	8.254819791465707E+001	-1.1876372E+000	-1.1879227E+000	-1.165495089588519E+001	-2.0542057E-001	10	1.3845181E-002	1.0192430E+002
2	0	0	0	8.274819790960464E+001	-1.1886371E+000	-1.1889204E+000	-1.178694595156617E+001	-2.0776822E-001	10	1.4013740E-002	1.0086755E+002
2	0	0	0	8.294819790455222E+001	-1.1896372E+000	-1.1899486E+000	-1.189595361010018E+001	-2.1013960E-001	10	1.4155573E-002	1.0002969E+002
2	0	0	0	8.314819789949979E+001	-1.1906371E+000	-1.1909208E+000	-1.200663385815630E+001	-2.1253291E-001	10	1.4298950E-002	9.9188568E+001
2	0	0	0	8.334819789444737E+001	-1.1916372E+000	-1.1919723E+000	-1.212784654780577E+001	-2.1494929E-001	10	1.4456057E-002	9.8283913E+001
2	0	0	0	8.354819788939494E+001	-1.1926371E+000	-1.1929550E+000	-1.227076093666682E+001	-2.1739234E-001	10	1.4638466E-002	9.7219322E+001
2	0	0	0	8.374819788434252E+001	-1.1936370E+000	-1.1939441E+000	-1.239026697226663E+001	-2.1986164E-001	10	1.4793286E-002	9.6361450E+001
2	0	0	1	8.394819787929009E+001	-1.1946372E+000	-1.1949290E+000	-1.254925831171864E+001	-2.2235847E-001	10	1.4995473E-002	9.5219093E+001
2	0	0	1	8.414819787423767E+001	-1.1956373E+000	-1.1959531E+000	-1.273019652882095E+001	-2.2489041E-001	10	1.5224718E-002	9.3946167E+001
2	0	0	1	8.434799786919029E+001	-1.1966367E+000	-1.1969107E+000	-1.294048437254418E+001	-2.2745718E-001	10	1.5488605E-002	9.2493507E+001
2	0	0	1	8.454809786413534E+001	-1.1976371E+000	-1.1979207E+000	-1.314586332579894E+001	-2.3007149E-001	10	1.5747702E-002	9.1125298E+001
2	0	0	1	8.474799785908544E+001	-1.1986370E+000	-1.1989095E+000	-1.327691139682889E+001	-2.3271544E-001	10	1.5917815E-002	9.0300331E+001
2	0	0	1	8.494799785403302E+001	-1.1996369E+000	-1.1999409E+000	-1.339868674783756E+001	-2.3538597E-001	10	1.6077632E-002	8.9556610E+001
2	0	0	1	8.514799784898059E+001	-1.2006369E+000	-1.2009195E+000	-1.356015232752773E+001	-2.3808497E-001	10	1.6284652E-002	8.8562393E+001
2	0	0	1	8.534799784392817E+001	-1.2016369E+000	-1.2019371E+000	-1.368521034271538E+001	-2.4081279E-001	10	1.6448762E-002	8.7827446E+001
2	0	0	1	8.554799783887574E+001	-1.2026370E+000	-1.2029231E+000	-1.378951590009831E+001	-2.4356309E-001	10	1.6587727E-002	8.7234612E+001
2	0	0	1	8.574799783382332E+001	-1.2036369E+000	-1.2039195E+000	-1.393712208519719E+001	-2.4633841E-001	10	1.6779173E-002	8.6382217E+001
2	0	0	1	8.594799782877089E+001	-1.2046369E+000	-1.2049392E+000	-1.412585134665713E+001	-2.4914894E-001	10	1.7020792E-002	8.5300293E+001
2	0	0	1	8.614799782371847E+001	-1.2056369E+000	-1.2059209E+000	-1.426784314252348E+001	-2.5199091E-001	10	1.7205890E-002	8.4520195E+001
2	0	0	1	8.634799781866604E+001	-1.2066367E+000	-1.2069142E+000	-1.443034212781185E+001	-2.5486442E-001	10	1.7416185E-002	8.3637253E+001
2	0	0	1	8.654799781361362E+001	-1.2076367E+000	-1.2079320E+000	-1.453119905924845E+001	-2.5776345E-001	10	1.7552700E-002	8.3126793E+001
2	0	0	1	8.674799780856119E+001	-1.2086369E+000	-1.2089103E+000	-1.463932685652010E+001	-2.6068342E-001	10	1.7697634E-002	8.2579643E+001
2	0	0	1	8.694799780350877E+001	-1.2096368E+000	-1.2099397E+000	-1.473218156867020E+001	-2.6362360E-001	10	1.7825052E-002	8.2129028E+001
2	0	0	1	8.714799779845634E+001	-1.2106367E+000	-1.2109236E+000	-1.505147494899447E+001	-2.6660460E-001	10	1.8226186E-002	8.0452148E+001
2	0	0	1	8.734799779340392E+001	-1.2116367E+000	-1.2119454E+000	-1.523221281150575E+001	-2.6963663E-001	10	1.8460611E-002	7.9564636E+001
2	0	0	1	8.754799778835149E+001	-1.2126367E+000	-1.2129334E+000	-1.537244440057648E+001	-2.7269974E-001	10	1.8645752E-002	7.8903091E+001
2	0	0	1	8.774799778329907E+001	-1.2136366E+000	-1.2139416E+000	-1.552017063159255E+001	-2.7579206E-001	10	1.8840581E-002	7.8217026E+001
2	0	0	1	8.794799777824664E+001	-1.2146367E+000	-1.2149562E+000	-1.565415497242462E+001	-2.7891269E-001	10	1.9019112E-002	7.7612373E+001
2	0	0	1	8.814799777319422E+001	-1.2156367E+000	-1.2159590E+000	-1.577767730867514E+001	-2.8205886E-001	10	1.9185008E-002	7.7068314E+001
2	0	0	1	8.834799776814180E+001	-1.2166365E+000	-1.2169225E+000	-1.601073479841628E+001	-2.8524056E-001	10	1.9483823E-002	7.6006660E+001
2	0	0	1	8.854799776308937E+001	-1.2176366E+000	-1.2179221E+000	-1.618347761798607E+001	-2.8846425E-001	10	1.9710215E-002	7.5257133E+001
2	0	0	1	8.874799775803695E+001	-1.2186365E+000	-1.2189261E+000	-1.631353963691900E+001	-2.9171696E-001	10	1.9884998E-002	7.4718674E+001
2	0	0	1	8.894799775298452E+001	-1.2196364E+000	-1.2199353E+000	-1.640692116708709E+001	-2.9499179E-001	10	2.0015383E-002	7.4354919E+001
2	0	0	1	8.914799774793210E+001	-1.2206365E+000	-1.2209107E+000	-1.656106121753618E+001	-2.9829216E-001	10	2.0219576E-002	7.3721764E+001
2	0	0	1	8.934799774287967E+001	-1.2216364E+000	-1.2219399E+000	-1.674259748453451E+001	-3.0162522E-001	10	2.0458449E-002	7.2983894E+001
2	0	0	1	8.954799773782725E+001	-1.2226365E+000	-1.2229385E+000	-1.702415273749098E+001	-3.0500686E-001	10	2.0819493E-002	7.1835503E+001
2	0	0	1	8.974799773277482E+001	-1.2236364E+000	-1.2239201E+000	-1.718644330939469E+001	-3.0843079E-001	10	2.1034833E-002	7.1214279E+001
2	0	0	1	8.994799772772240E+001	-1.2246364E+000	-1.2249081E+000	-1.745539980897013E+001	-3.1189770E-001	10	2.1381261E-002	7.0173592E+001
2	0	0	1	9.014799772266997E+001	-1.2256365E+000	-1.2259247E+000	-1.768098669973901E+001	-3.1541479E-001	10	2.1675559E-002	6.9335762E+001
2	0	0	1	9.034799771761755E+001	-1.2266364E+000	-1.2269278E+000	-1.787111042132449E+001	-3.1897315E-001	10	2.1926561E-002	6.8654251E+001
2	0	0	1	9.054799771256512E+001	-1.2276362E+000	-1.2279443E+000	-1.802133544799693E+001	-3.2256538E-001	10	2.2129195E-002	6.8138359E+001
2	0	0	1	9.074799770751270E+001	-1.2286363E+000	-1.2289089E+000	-1.818034916061934E+001	-3.2618791E-001	10	2.2341993E-002	6.7595451E+001
2	0	0	1	9.094799770246027E+001	-1.2296362E+000	-1.2299700E+000	-1.842686475377502E+001	-3.2985267E-001	10	2.2664491E-002	6.6748741E+001
2	0	0	1	9.114799769740785E+001	-1.2306362E+000	-1.2309453E+000	-1.857087745079920E+001	-3.3355561E-001	10	2.2859735E-002	6.6283638E+001
2	0	0	1	9.134799769235542E+001	-1.2316362E+000	-1.2319324E+000	-1.868855705174724E+001	-3.3728454E-001	10	2.3023039E-002	6.5919075E+001
2	0	0	1	9.154799768730300E+001	-1.2326362E+000	-1.2329289E+000	-1.905833594815257E+001	-3.4106269E-001	10	2.3497572E-002	6.4692368E+001
2	0	0	1	9.174799768225057E+001	-1.2336363E+000	-1.2339646E+000	-1.927379940196766E+001	-3.4489956E-001	10	2.3783185E-002	6.4022903E+001
2	0	0	1	9.194799767719815E+001	-1.2346361E+000	-1.2349323E+000	-1.947660444531575E+001	-3.4877846E-001	10	2.4052288E-002	6.3405933E+001
2	0	0	1	9.214799767214572E+001	-1.2356361E+000	-1.2359478E+000	-1.959181066475762E+001	-3.5268810E-001	10	2.4214456E-002	6.3084923E+001
2	0	0	1	9.234799766709330E+001	-1.2366362E+000	-1.2368882E+000	-1.975011476867581E+001	-3.5662508E-001	10	2.4428682E-002	6.2626884E+001
2	0	0	1	9.254799766204087E+001	-1.2376362E+000	-1.2379557E+000	-1.994822317429405E+001	-3.6059847E-001	10	2.4695016E-002	6.2058445E+001
2	0	0	1	9.274799765698845E+001	-1.2386361E+000	-1.2389809E+000	-2.017784709670904E+001	-3.6461350E-001	10	2.4999967E-002	6.1403027E+001
2	0	0	1	9.294789765193855E+001	-1.2396357E+000	-1.2399282E+000	-2.031941403254738E+001	-3.6866492E-001	10	2.5194615E-002	6.1021851E+001
2	0	0	1	9.314789764688612E+001	-1.2406360E+000	-1.2409228E+000	-2.048113876487605E+001	-3.7274846E-001	10	2.5415512E-002	6.0588566E+001
2	0	0	1	9.334779764183622E+001	-1.2416357E+000	-1.2419212E+000	-2.062234290082897E+001	-3.7685889E-001	10	2.5611324E-002	6.0222118E+001
2	0	0	1	9.354789763678127E+001	-1.2426362E+000	-1.2429225E+000	-2.099831146747272E+001	-3.8102534E-001	10	2.6099274E-002	5.9191547E+001
2	0	0	1	9.374779763173137E+001	-1.2436359E+000	-1.2439525E+000	-2.124567604397744E+001	-3.8525230E-001	10	2.6428612E-002	5.8550858E+001
2	0	0	0	9.394779762667895E+001	-1.2446359E+000	-1.2449247E+000	-2.139480777689663E+001	-3.8951969E-001	10	2.6634924E-002	5.8188168E+001
2	0	0	0	9.414779762162652E+001	-1.2456360E+000	-1.2459562E+000	-2.158580251967280E+001	-3.9382052E-001	10	2.6894964E-002	5.7721096E+001
2	0	0	0	9.434779761657410E+001	-1.2466359E+000	-1.2469051E+000	-2.180219142993838E+001	-3.9816281E-001	10	2.7185263E-002	5.7191730E+001
2	0	0	0	9.454779761152167E+001	-1.2476357E+000	-1.2479270E+000	-2.198419169436244E+001	-4.0254390E-001	10	2.7434666E-002	5.6764740E+001
2	0	0	0	9.474779760646925E+001	-1.2486358E+000	-1.2489202E+000	-2.214868942166677E+001	-4.0696064E-001	10	2.7661946E-002	5.6387997E+001
2	0	0	0	9.494779760141682E+001	-1.2496359E+000	-1.2498977E+000	-2.237022261649304E+001	-4.1141582E-001	10	2.7960490E-002	5.5873280E+001
2	0	0	0	9.514779759636440E+001	-1.2506359E+000	-1.2509238E+000	-2.263252471863821E+001	-4.1592002E-001	10	2.8311564E-002	5.5271065E+001
2	0	0	0	9.534779759131197E+001	-1.2516358E+000	-1.2519161E+000	-2.285710712233365E+001	-4.2047229E-001	10	2.8615179E-002	5.4771412E+001
2	0	0	0	9.554779758625955E+001	-1.2526357E+000	-1.2529570E+000	-2.325977838836843E+001	-4.2508838E-001	10	2.9143501E-002	5.3867966E+001
2	0	0	0	9.574779758120712E+001	-1.2536358E+000	-1.2539058E+000	-2.359489502536451E+001	-4.2978001E-001	10	2.9585775E-002	5.3143097E+001
2	0	0	0	9.594779757615470E+001	-1.2546357E+000	-1.2549002E+000	-2.380810084391612E+001	-4.3452373E-001	10	2.9876791E-002	5.2708958E+001
2	0	0	0	9.614779757110227E+001	-1.2556357E+000	-1.2559273E+000	-2.398570193792960E+001	-4.3930653E-001	10	3.0124299E-002	5.2361500E+001
2	0	0	0	9.634779756604985E+001	-1.2566358E+000	-1.2569121E+000	-2.414345797957213E+001	-4.4412288E-001	10	3.0346205E-002	5.2060154E+001
2	0	0	0	9.654779756099742E+001	-1.2576357E+000	-1.2579459E+000	-2.434534968540504E+001	-4.4897446E-001	10	3.0625133E-002	5.1670891E+001
2	0	0	0	9.674779755594500E+001	-1.2586356E+000	-1.2589390E+000	-2.458491374305595E+001	-4.5387059E-001	10	3.0950908E-002	5.1207787E+001
2	0	0	0	9.694779755089257E+001	-1.2596356E+000	-1.2599620E+000	-2.479305378879815E+001	-4.5881113E-001	10	3.1238304E-002	5.0819153E+001
2	0	0	0	9.714779754584015E+001	-1.2606355E+000	-1.2609118E+000	-2.521432778894774E+001	-4.6381643E-001	10	3.1793043E-002	5.0007751E+001
2	0	0	0	9.734779754078772E+001	-1.2616355E+000	-1.2619148E+000	-2.544533414932613E+001	-4.6888664E-001	10	3.2109845E-002	4.9593174E+001
2	0	0	0	9.754779753573530E+001	-1.2626355E+000	-1.2629771E+000	-2.556552439400946E+001	-4.7399074E-001	10	3.2288674E-002	4.9401573E+001
2	0	0	0	9.774779753068287E+001	-1.2636355E+000	-1.2639278E+000	-2.574157045244363E+001	-4.7912377E-001	10	3.2535486E-002	4.9100651E+001
2	0	0	0	9.794779752563045E+001	-1.2646356E+000	-1.2649221E+000	-2.603575100947390E+001	-4.8430523E-001	10	3.2933198E-002	4.8584045E+001
2	0	0	0	9.814779752057802E+001	-1.2656355E+000	-1.2659432E+000	-2.636679711795989E+001	-4.8954886E-001	10	3.3378866E-002	4.8012779E+001
2	0	0	0	9.834779751552560E+001	-1.2666355E+000	-1.2669289E+000	-2.654113065736897E+001	-4.9484393E-001	10	3.3625726E-002	4.7734550E+001
2	0	0	0	9.854779751047317E+001	-1.2676355E+000	-1.2679043E+000	-2.679353597699401E+001	-5.0017929E-001	10	3.3971637E-002	4.7321274E+001
2	0	0	0	9.874779750542075E+001	-1.2686355E+000	-1.2689155E+000	-2.702904294002082E+001	-5.0556594E-001	10	3.4297574E-002	4.6946373E+001
2	0	0	0	9.894779750036832E+001	-1.2696353E+000	-1.2699132E+000	-2.747424254936425E+001	-5.1102179E-001	10	3.4889903E-002	4.6221954E+001
2	0	0	0	9.914779749531590E+001	-1.2706354E+000	-1.2709340E+000	-2.775077125301698E+001	-5.1654774E-001	10	3.5269398E-002	4.5798149E+001
2	0	0	0	9.934779749026347E+001	-1.2716353E+000	-1.2719349E+000	-2.793098848071500E+001	-5.2212036E-001	10	3.5526399E-002	4.5538483E+001
2	0	0	0	9.954779748521105E+001	-1.2726353E+000	-1.2729387E+000	-2.841596100903416E+001	-5.2775848E-001	10	3.6171779E-002	4.4796612E+001
2	0	0	0	9.974779748015862E+001	-1.2736353E+000	-1.2739500E+000	-2.866295307293501E+001	-5.3347093E-001	10	3.6515169E-002	4.4445873E+001
2	0	0	0	9.994779747510620E+001	-1.2746353E+000	-1.2749346E+000	-2.878520269756149E+001	-5.3921890E-001	10	3.6699254E-002	4.4291321E+001
2	0	0	0	1.001477974700538E+002	-1.2756352E+000	-1.2759112E+000	-2.900913723715297E+001	-5.4500031E-001	10	3.7013084E-002	4.3983082E+001
2	0	0	0	1.003477974650013E+002	-1.2766353E+000	-1.2768971E+000	-2.935465995416622E+001	-5.5084026E-001	10	3.7482880E-002	4.3498955E+001
2	0	0	0	1.005477974599489E+002	-1.2776352E+000	-1.2779230E+000	-2.959991490570590E+001	-5.5674094E-001	10	3.7826411E-002	4.3173199E+001
2	0	0	0	1.007477974548965E+002	-1.2786353E+000	-1.2788985E+000	-2.981519237126895E+001	-5.6268644E-001	10	3.8130604E-002	4.2894188E+001
2	0	0	0	1.009477974498441E+002	-1.2796353E+000	-1.2799309E+000	-3.010533868023057E+001	-5.6868219E-001	10	3.8532756E-002	4.2515083E+001
2	0	0	0	1.011477974447917E+002	-1.2806352E+000	-1.2809157E+000	-3.048064385168672E+001	-5.7474345E-001	10	3.9043136E-002	4.2023907E+001
2	0	0	0	1.013477974397392E+002	-1.2816350E+000	-1.2819388E+000	-3.067954424530475E+001	-5.8086395E-001	10	3.9329298E-002	4.1784805E+001
2	0	0	0	1.015477974346868E+002	-1.2826351E+000	-1.2829310E+000	-3.075122045605630E+001	-5.8700979E-001	10	3.9451692E-002	4.1719677E+001
2	0	0	1	1.017476974296369E+002	-1.2836348E+000	-1.2839357E+000	-3.107662955853285E+001	-5.9318930E-001	10	3.9900392E-002	4.1315151E+001
2	0	0	1	1.019476974245845E+002	-1.2846348E+000	-1.2849016E+000	-3.147462866478232E+001	-5.9944916E-001	10	4.0441800E-002	4.0823410E+001
2	0	0	1	1.021476974195321E+002	-1.2856350E+000	-1.2859112E+000	-3.182138899531714E+001	-6.0578340E-001	10	4.0919479E-002	4.0410278E+001
2	0	0	1	1.023475974144822E+002	-1.2866348E+000	-1.2869198E+000	-3.213728704602143E+001	-6.1218005E-001	10	4.1358113E-002	4.0044445E+001
2	0	0	1	1.025476974094272E+002	-1.2876356E+000	-1.2879138E+000	-3.237764468810519E+001	-6.1863869E-001	10	4.1699614E-002	3.9777870E+001
2	0	0	1	1.027475974043773E+002	-1.2886349E+000	-1.2888949E+000	-3.288731647132477E+001	-6.2516516E-001	10	4.2388294E-002	3.9191246E+001
2	0	0	1	1.029475973993249E+002	-1.2896349E+000	-1.2898936E+000	-3.306392341892735E+001	-6.3176477E-001	10	4.2648945E-002	3.9012115E+001
2	0	0	1	1.031475973942725E+002	-1.2906349E+000	-1.2909155E+000	-3.339698860326325E+001	-6.3841361E-001	10	4.3112691E-002	3.8653648E+001
2	0	0	1	1.033475973892200E+002	-1.2916349E+000	-1.2919279E+000	-3.389223783978537E+001	-6.4514995E-001	10	4.3786328E-002	3.8118698E+001
2	0	0	1	1.035475973841676E+002	-1.2926348E+000	-1.2929128E+000	-3.419249817762790E+001	-6.5196222E-001	10	4.4207919E-002	3.7812763E+001
2	0	0	1	1.037475973791152E+002	-1.2936349E+000	-1.2939113E+000	-3.446974171748776E+001	-6.5883219E-001	10	4.4600789E-002	3.7537598E+001
2	0	0	1	1.039475973740628E+002	-1.2946348E+000	-1.2948813E+000	-3.459714580528316E+001	-6.6574204E-001	10	4.4799197E-002	3.7427402E+001
2	0	0	1	1.041475973690103E+002	-1.2956347E+000	-1.2959063E+000	-3.482337142442628E+001	-6.7268634E-001	10	4.5127828E-002	3.7213696E+001
2	0	0	1	1.043475973639579E+002	-1.2966348E+000	-1.2969081E+000	-3.516500829785315E+001	-6.7969197E-001	10	4.5605786E-002	3.6880642E+001
2	0	0	1	1.045475973589055E+002	-1.2976348E+000	-1.2979078E+000	-3.568707559249287E+001	-6.8678230E-001	10	4.6318535E-002	3.6369129E+001
2	0	0	1	1.047475973538531E+002	-1.2986349E+000	-1.2989277E+000	-3.604036367750487E+001	-6.9395947E-001	10	4.6813827E-002	3.6040913E+001
2	0	0	1	1.049475973488006E+002	-1.2996347E+000	-1.2998797E+000	-3.616949345573528E+001	-7.0118368E-001	10	4.7015991E-002	3.5938564E+001
2	0	0	1	1.051475973437482E+002	-1.3006347E+000	-1.3009058E+000	-3.661270090701078E+001	-7.0846641E-001	10	4.7629677E-002	3.5531544E+001
2	0	0	1	1.053475973386958E+002	-1.3016347E+000	-1.3018885E+000	-3.677942555967081E+001	-7.1580911E-001	10	4.7882710E-002	3.5397194E+001
2	0	0	1	1.055475973336434E+002	-1.3026346E+000	-1.3029200E+000	-3.710970381706488E+001	-7.2320056E-001	10	4.8350975E-002	3.5109955E+001
2	0	0	1	1.057475973285909E+002	-1.3036346E+000	-1.3039080E+000	-3.772478488945904E+001	-7.3069280E-001	10	4.9189650E-002	3.4563694E+001
2	0	0	1	1.059475973235385E+002	-1.3046346E+000	-1.3048928E+000	-3.800604363823152E+001	-7.3826969E-001	10	4.9593814E-002	3.4333824E+001
2	0	0	1	1.061475973184861E+002	-1.3056346E+000	-1.3058977E+000	-3.851637382301885E+001	-7.4592948E-001	10	5.0298445E-002	3.3905003E+001
2	0	0	1	1.063475973134337E+002	-1.3066345E+000	-1.3069102E+000	-3.869495314805681E+001	-7.5365490E-001	10	5.0570827E-002	3.3774693E+001
2	0	0	1	1.065475973083812E+002	-1.3076345E+000	-1.3079566E+000	-3.887927271854863E+001	-7.6141608E-001	10	5.0852399E-002	3.3641487E+001
2	0	0	1	1.067475973033288E+002	-1.3086345E+000	-1.3088744E+000	-3.941981828753370E+001	-7.6924813E-001	10	5.1595591E-002	3.3203461E+001
2	0	0	1	1.069475972982764E+002	-1.3096346E+000	-1.3099262E+000	-3.983574693624664E+001	-7.7717793E-001	10	5.2181888E-002	3.2883183E+001
2	0	0	1	1.071475972932240E+002	-1.3106344E+000	-1.3109503E+000	-4.007011403815822E+001	-7.8517300E-001	10	5.2529927E-002	3.2716412E+001
2	0	0	1	1.073475972881715E+002	-1.3116344E+000	-1.3119678E+000	-4.025078621554002E+001	-7.9320699E-001	10	5.2807737E-002	3.2594837E+001
2	0	0	1	1.075475972831191E+002	-1.3126343E+000	-1.3128922E+000	-4.042314628760028E+001	-8.0127758E-001	10	5.3071234E-002	3.2478725E+001
2	0	0	1	1.077475972780667E+002	-1.3136344E+000	-1.3139153E+000	-4.075852517313956E+001	-8.0939806E-001	10	5.3553250E-002	3.2236576E+001
2	0	0	1	1.079475972730143E+002	-1.3146343E+000	-1.3149213E+000	-4.150783638591940E+001	-8.1762755E-001	10	5.4579537E-002	3.1678867E+001
2	0	0	1	1.081475972679618E+002	-1.3156344E+000	-1.3159091E+000	-4.180342787328482E+001	-8.2596427E-001	10	5.5009514E-002	3.1478498E+001
2	0	0	1	1.083475972629094E+002	-1.3166343E+000	-1.3169174E+000	-4.192745083394777E+001	-8.3434063E-001	10	5.5214990E-002	3.1409431E+001
2	0	0	1	1.085475972578570E+002	-1.3176343E+000	-1.3179446E+000	-4.224142512956178E+001	-8.4276223E-001	10	5.5671860E-002	3.1200289E+001
2	0	0	1	1.087475972528046E+002	-1.3186343E+000	-1.3189422E+000	-4.255369103306282E+001	-8.5124737E-001	10	5.6125857E-002	3.0994778E+001
2	0	0	1	1.089475972477521E+002	-1.3196342E+000	-1.3198920E+000	-4.295410591350390E+001	-8.5980421E-001	10	5.6694783E-002	3.0727961E+001
2	0	0	1	1.091475972426997E+002	-1.3206342E+000	-1.3209002E+000	-4.337587827376495E+001	-8.6843973E-001	10	5.7295207E-002	3.0452414E+001
2	0	0	1	1.093475972376473E+002	-1.3216343E+000	-1.3218775E+000	-4.410008976302717E+001	-8.7719160E-001	10	5.8294915E-002	2.9974485E+001
2	0	0	1	1.095475972325949E+002	-1.3226341E+000	-1.3229175E+000	-4.450620818840935E+001	-8.8605654E-001	10	5.8878042E-002	2.9724335E+001
2	0	0	1	1.097475972275424E+002	-1.3236341E+000	-1.3239468E+000	-4.487819785487886E+001	-8.9499897E-001	10	5.9416346E-002	2.9500891E+001
2	0	0	1	1.099475972224900E+002	-1.3246341E+000	-1.3248999E+000	-4.509235163259382E+001	-9.0400088E-001	10	5.9742853E-002	2.9381922E+001
2	0	0	1	1.101475972174376E+002	-1.3256341E+000	-1.3259175E+000	-4.524174199407071E+001	-9.1303664E-001	10	5.9986815E-002	2.9307392E+001
2	0	0	1	1.103475972123852E+002	-1.3266342E+000	-1.3269150E+000	-4.571727973776865E+001	-9.2213780E-001	10	6.0662944E-002	2.9024364E+001
2	0	0	1	1.105475972073327E+002	-1.3276341E+000	-1.3279232E+000	-4.636668143872498E+001	-9.3135226E-001	10	6.1571389E-002	2.8639599E+001
2	0	0	1	1.107474972022828E+002	-1.3286340E+000	-1.3289152E+000	-4.657471551547900E+001	-9.4064444E-001	10	6.1893851E-002	2.8532976E+001
2	0	0	1	1.109474971972304E+002	-1.3296338E+000	-1.3298736E+000	-4.693332266200017E+001	-9.4999903E-001	10	6.2415384E-002	2.8335381E+001
2	0	0	1	1.111474971921780E+002	-1.3306344E+000	-1.3309182E+000	-4.691920032287214E+001	-9.5938826E-001	10	6.2445618E-002	2.8366175E+001
2	0	0	1	1.113473971871281E+002	-1.3316337E+000	-1.3319227E+000	-4.760526457655556E+001	-9.6883875E-001	10	6.3406527E-002	2.7978474E+001
2	0	0	0	1.115473971820757E+002	-1.3326340E+000	-1.3329417E+000	-4.808633945588349E+001	-9.7841710E-001	10	6.4096287E-002	2.7719757E+001
2	0	0	0	1.117473971770232E+002	-1.3336340E+000	-1.3339520E+000	-4.830661132059959E+001	-9.8806024E-001	10	6.4438701E-002	2.7614273E+001
2	0	0	0	1.119473971719708E+002	-1.3346339E+000	-1.3349272E+000	-4.878289972843743E+001	-9.9777466E-001	10	6.5121621E-002	2.7364655E+001
2	0	0	0	1.121473971669184E+002	-1.3356339E+000	-1.3359640E+000	-4.912981850571100E+001	-1.0075743E+000	10	6.5635666E-002	2.7192528E+001
2	0	0	0	1.123473971618660E+002	-1.3366338E+000	-1.3369414E+000	-4.980654768608588E+001	-1.0174702E+000	10	6.6588432E-002	2.6842682E+001
2	0	0	0	1.125473971568135E+002	-1.3376338E+000	-1.3379548E+000	-5.029418484153661E+001	-1.0274898E+000	10	6.7291342E-002	2.6602573E+001
2	0	0	0	1.127473971517611E+002	-1.3386339E+000	-1.3389409E+000	-5.039335892908707E+001	-1.0375608E+000	10	6.7473724E-002	2.6569788E+001
2	0	0	0	1.129473971467087E+002	-1.3396339E+000	-1.3399298E+000	-5.074592471284927E+001	-1.0476766E+000	10	6.7995980E-002	2.6404678E+001
2	0	0	0	1.131473971416563E+002	-1.3406339E+000	-1.3409346E+000	-5.144220567884895E+001	-1.0579016E+000	10	6.8980634E-002	2.6066818E+001
2	0	0	0	1.133473971366038E+002	-1.3416338E+000	-1.3419577E+000	-5.146605126765871E+001	-1.0681950E+000	10	6.9065265E-002	2.6074619E+001
2	0	0	0	1.135473971315514E+002	-1.3426337E+000	-1.3429086E+000	-5.197412149598006E+001	-1.0785446E+000	10	6.9796495E-002	2.5838024E+001
2	0	0	0	1.137473971264990E+002	-1.3436337E+000	-1.3439221E+000	-5.244534432969135E+001	-1.0889866E+000	10	7.0482463E-002	2.5625195E+001
2	0	0	0	1.139473971214466E+002	-1.3446337E+000	-1.3448983E+000	-5.296804111560704E+001	-1.0995322E+000	10	7.1236633E-002	2.5390751E+001
2	0	0	0	1.141473971163941E+002	-1.3456336E+000	-1.3459170E+000	-5.338070862255415E+001	-1.1101753E+000	10	7.1846001E-002	2.5213547E+001
2	0	0	0	1.143473971113417E+002	-1.3466337E+000	-1.3469189E+000	-5.367251564045355E+001	-1.1208847E+000	10	7.2292529E-002	2.5095133E+001
2	0	0	0	1.145473971062893E+002	-1.3476336E+000	-1.3479429E+000	-5.453990175123938E+001	-1.1317140E+000	10	7.3516674E-002	2.4714804E+001
2	0	0	0	1.147473971012369E+002	-1.3486336E+000	-1.3489385E+000	-5.463844142533208E+001	-1.1426361E+000	10	7.3703893E-002	2.4688450E+001
2	0	0	0	1.149473970961844E+002	-1.3496336E+000	-1.3499085E+000	-5.495760691409185E+001	-1.1536003E+000	10	7.4187741E-002	2.4562723E+001
2	0	0	0	1.151473970911320E+002	-1.3506336E+000	-1.3509282E+000	-5.517774831194470E+001	-1.1646183E+000	10	7.4541174E-002	2.4483206E+001
2	0	0	0	1.153473970860796E+002	-1.3516337E+000	-1.3519331E+000	-5.593792964163254E+001	-1.1757330E+000	10	7.5624339E-002	2.4168451E+001
2	0	0	0	1.155473970810272E+002	-1.3526335E+000	-1.3529021E+000	-5.649384424854043E+001	-1.1869837E+000	10	7.6430641E-002	2.3947779E+001
2	0	0	0	1.157473970759747E+002	-1.3536335E+000	-1.3539048E+000	-5.682715526189395E+001	-1.1983231E+000	10	7.6938562E-002	2.3824963E+001
2	0	0	0	1.159473970709223E+002	-1.3546335E+000	-1.3549521E+000	-5.695381284138512E+001	-1.2097039E+000	10	7.7169687E-002	2.3790367E+001
2	0	0	0	1.161473970658699E+002	-1.3556334E+000	-1.3559328E+000	-5.722111350068167E+001	-1.2211237E+000	10	7.7587985E-002	2.3696373E+001
2	0	0	0	1.163473970608175E+002	-1.3566334E+000	-1.3569411E+000	-5.823208918214635E+001	-1.2326727E+000	10	7.9017513E-002	2.3302292E+001
2	0	0	0	1.165473970557650E+002	-1.3576335E+000	-1.3579417E+000	-5.877145253557774E+001	-1.2443813E+000	10	7.9808205E-002	2.3105465E+001
2	0	0	0	1.167473970507126E+002	-1.3586334E+000	-1.3589319E+000	-5.913269684211980E+001	-1.2561765E+000	10	8.0357306E-002	2.2981058E+001
2	0	0	0	1.169473970456602E+002	-1.3596333E+000	-1.3599230E+000	-5.962664226880133E+001	-1.2680552E+000	10	8.1087641E-002	2.2807304E+001
2	0	0	0	1.171473970406078E+002	-1.3606333E+000	-1.3609756E+000	-5.977334184278985E+001	-1.2800004E+000	10	8.1350058E-002	2.2768940E+001
2	0	0	0	1.173473970355553E+002	-1.3616333E+000	-1.3619329E+000	-6.055196177067410E+001	-1.2920403E+000	10	8.2467705E-002	2.2491970E+001
2	0	0	0	1.175473970305029E+002	-1.3626333E+000	-1.3628976E+000	-6.087183645577136E+001	-1.3041888E+000	10	8.2962081E-002	2.2389626E+001
2	0	0	0	1.177473970254505E+002	-1.3636333E+000	-1.3638921E+000	-6.131730923414784E+001	-1.3164139E+000	10	8.3630189E-002	2.2243181E+001
2	0	0	0	1.179473970203981E+002	-1.3646332E+000	-1.3649213E+000	-6.172008774934739E+001	-1.3287203E+000	10	8.4243067E-002	2.2114702E+001
2	0	0	0	1.181473970153456E+002	-1.3656331E+000	-1.3659517E+000	-6.199441731705952E+001	-1.3410963E+000	10	8.4681377E-002	2.2033463E+001
2	0	0	0	1.183473970102932E+002	-1.3666332E+000	-1.3669355E+000	-6.262615475362657E+001	-1.3535651E+000	10	8.5605912E-002	2.1826910E+001
2	0	0	0	1.185473970052408E+002	-1.3676332E+000	-1.3679298E+000	-6.337020201531675E+001	-1.3661747E+000	10	8.6685985E-002	2.1586325E+001
2	0	0	0	1.187473970001884E+002	-1.3686332E+000	-1.3689358E+000	-6.367043298388288E+001	-1.3788837E+000	10	8.7160736E-002	2.1500338E+001
2	0	0	0	1.189473969951359E+002	-1.3696332E+000	-1.3699589E+000	-6.386041700164225E+001	-1.3916392E+000	10	8.7486148E-002	2.1452394E+001
2	0	0	0	1.191473969900835E+002	-1.3706331E+000	-1.3709309E+000	-6.486807238866399E+001	-1.4045141E+000	10	8.8929646E-002	2.1134140E+001
2	0	0	1	1.193473969850311E+002	-1.3716333E+000	-1.3719296E+000	-6.516346925568882E+001	-1.4175240E+000	10	8.9399695E-002	2.1053661E+001
2	0	0	1	1.195473969799787E+002	-1.3726332E+000	-1.3729591E+000	-6.568426459876781E+001	-1.4306068E+000	10	9.0181813E-002	2.0902405E+001
2	0	0	1	1.197472969749288E+002	-1.3736331E+000	-1.3739269E+000	-6.602107220249326E+001	-1.4437768E+000	10	9.0708129E-002	2.0810431E+001
2	0	0	1	1.199472969698763E+002	-1.3746331E+000	-1.3749412E+000	-6.657739916660955E+001	-1.4570454E+000	10	9.1540009E-002	2.0651772E+001
2	0	0	1	1.201471969648264E+002	-1.3756329E+000	-1.3759048E+000	-6.702266079536628E+001	-1.4704050E+000	10	9.2216797E-002	2.0528950E+001
2	0	0	1	1.203471969597740E+002	-1.3766328E+000	-1.3769416E+000	-6.718114722866039E+001	-1.4838313E+000	10	9.2504516E-002	2.0495953E+001
2	0	0	1	1.205471969547216E+002	-1.3776330E+000	-1.3779498E+000	-6.804013728446694E+001	-1.4973537E+000	10	9.3755893E-002	2.0252014E+001
2	0	0	1	1.207471969496692E+002	-1.3786329E+000	-1.3789366E+000	-6.825531131880643E+001	-1.5109905E+000	10	9.4119750E-002	2.0202627E+001
2	0	0	1	1.209471969446167E+002	-1.3796329E+000	-1.3798993E+000	-6.881349086383023E+001	-1.5246968E+000	10	9.4955683E-002	2.0052744E+001
2	0	0	1	1.211471969395643E+002	-1.3806330E+000	-1.3809509E+000	-6.950404618873131E+001	-1.5385371E+000	10	9.5981680E-002	1.9868641E+001
2	0	0	1	1.213471969345119E+002	-1.3816329E+000	-1.3819114E+000	-6.989362286169757E+001	-1.5524886E+000	10	9.6586794E-002	1.9771637E+001
2	0	0	1	1.215471969294595E+002	-1.3826329E+000	-1.3829248E+000	-7.013792245079890E+001	-1.5664996E+000	10	9.6995473E-002	1.9717218E+001
2	0	0	1	1.217471969244070E+002	-1.3836328E+000	-1.3838936E+000	-7.103405873899862E+001	-1.5806192E+000	10	9.8303579E-002	1.9482113E+001
2	0	0	1	1.219471969193546E+002	-1.3846327E+000	-1.3849028E+000	-7.151904932441585E+001	-1.5948781E+000	10	9.9046931E-002	1.9364111E+001
2	0	0	1	1.221471969143022E+002	-1.3856328E+000	-1.3858888E+000	-7.192914322930937E+001	-1.6092322E+000	10	9.9685796E-002	1.9267418E+001
2	0	0	1	1.223471969092498E+002	-1.3866328E+000	-1.3869034E+000	-7.201267976717602E+001	-1.6236290E+000	10	9.9874631E-002	1.9259155E+001
2	0	0	1	1.225471969041973E+002	-1.3876327E+000	-1.3879275E+000	-7.251584651572892E+001	-1.6380839E+000	10	1.0064674E-001	1.9139645E+001
2	0	0	1	1.227471968991449E+002	-1.3886327E+000	-1.3889281E+000	-7.345665532282965E+001	-1.6526939E+000	10	1.0202601E-001	1.8908131E+001
2	0	0	1	1.229471968940925E+002	-1.3896327E+000	-1.3898842E+000	-7.365490217435945E+001	-1.6674081E+000	10	1.0237179E-001	1.8870220E+001
2	0	0	1	1.231471968890401E+002	-1.3906326E+000	-1.3909689E+000	-7.414336988066339E+001	-1.6821952E+000	10	1.0313112E-001	1.8760530E+001
2	0	0	1	1.233471968839876E+002	-1.3916327E+000	-1.3919196E+000	-7.475069938008710E+001	-1.6970854E+000	10	1.0404696E-001	1.8620825E+001
2	0	0	1	1.235471968789352E+002	-1.3926327E+000	-1.3929193E+000	-7.509379730743615E+001	-1.7120737E+000	10	1.0459960E-001	1.8549059E+001
2	0	0	1	1.237471968738828E+002	-1.3936328E+000	-1.3939403E+000	-7.565271073566265E+001	-1.7271556E+000	10	1.0545536E-001	1.8425518E+001
2	0	0	1	1.239471968688304E+002	-1.3946326E+000	-1.3949356E+000	-7.630179500201371E+001	-1.7423531E+000	10	1.0643609E-001	1.8281818E+001
2	0	0	1	1.241471968637779E+002	-1.3956326E+000	-1.3959247E+000	-7.705870079886051E+001	-1.7577001E+000	10	1.0756814E-001	1.8115082E+001
2	0	0	1	1.243471968587255E+002	-1.3966324E+000	-1.3969297E+000	-7.698855671374417E+001	-1.7731074E+000	10	1.0754760E-001	1.8144642E+001
2	0	0	1	1.245471968536731E+002	-1.3976325E+000	-1.3979239E+000	-7.778453648982406E+001	-1.7885852E+000	10	1.0873687E-001	1.7971746E+001
2	0	0	1	1.247471968486207E+002	-1.3986325E+000	-1.3989130E+000	-7.864499898075815E+001	-1.8042397E+000	10	1.1001752E-001	1.7787693E+001
2	0	0	1	1.249471968435682E+002	-1.3996326E+000	-1.3999264E+000	-7.883536507050731E+001	-1.8199908E+000	10	1.1036371E-001	1.7757595E+001
2	0	0	1	1.251471968385158E+002	-1.4006325E+000	-1.4009336E+000	-7.919908921842918E+001	-1.8357962E+000	10	1.1095267E-001	1.7688759E+001
2	0	0	1	1.253471968334634E+002	-1.4016325E+000	-1.4019481E+000	-7.985763497147190E+001	-1.8517034E+000	10	1.1195626E-001	1.7555592E+001
2	0	0	1	1.255471968284110E+002	-1.4026324E+000	-1.4029211E+000	-8.037293174585790E+001	-1.8677298E+000	10	1.1275688E-001	1.7455143E+001
2	0	0	1	1.257471968233585E+002	-1.4036324E+000	-1.4039273E+000	-8.100942812755272E+001	-1.8838770E+000	10	1.1373135E-001	1.7330420E+001
2	0	0	1	1.259471968183061E+002	-1.4046324E+000	-1.4048964E+000	-8.149457378668569E+001	-1.9001364E+000	10	1.1449143E-001	1.7239140E+001
2	0	0	1	1.261471968132537E+002	-1.4056323E+000	-1.4059118E+000	-8.229989120803475E+001	-1.9165192E+000	10	1.1570639E-001	1.7082790E+001
2	0	0	1	1.263471968082013E+002	-1.4066323E+000	-1.4069103E+000	-8.295846437164403E+001	-1.9330455E+000	10	1.1671512E-001	1.6959213E+001
2	0	0	1	1.265471968031488E+002	-1.4076322E+000	-1.4079132E+000	-8.353113533904494E+001	-1.9497056E+000	10	1.1760459E-001	1.6854952E+001
2	0	0	1	1.267471967980964E+002	-1.4086323E+000	-1.4089043E+000	-8.361950834430013E+001	-1.9664246E+000	10	1.1781189E-001	1.6848991E+001
2	0	0	1	1.269471967930440E+002	-1.4096322E+000	-1.4099126E+000	-8.449632388718294E+001	-1.9832354E+000	10	1.1913243E-001	1.6686083E+001
2	0	0	1	1.271471967879916E+002	-1.4106323E+000	-1.4109356E+000	-8.474469809953871E+001	-2.0001678E+000	10	1.1956932E-001	1.6649250E+001
2	0	0	1	1.273471967829391E+002	-1.4116322E+000	-1.4119383E+000	-8.533185007566794E+001	-2.0171821E+000	10	1.2048331E-001	1.6546440E+001
2	0	0	1	1.275471967778867E+002	-1.4126322E+000	-1.4129443E+000	-8.579557667946324E+001	-2.0343046E+000	10	1.2122437E-001	1.6468731E+001
2	0	0	1	1.277471967728343E+002	-1.4136320E+000	-1.4139122E+000	-8.664404831613797E+001	-2.0515552E+000	10	1.2250707E-001	1.6318630E+001
2	0	0	1	1.279471967677819E+002	-1.4146321E+000	-1.4149480E+000	-8.718325680129385E+001	-2.0689399E+000	10	1.2335978E-001	1.6229584E+001
2	0	0	1	1.281471967627294E+002	-1.4156321E+000	-1.4159254E+000	-8.765206402499666E+001	-2.0864294E+000	10	1.2410878E-001	1.6153931E+001
2	0	0	1	1.283471967576770E+002	-1.4166325E+000	-1.4169263E+000	-8.783406283736304E+001	-2.1039810E+000	10	1.2445439E-001	1.6131853E+001
2	0	0	1	1.285471967526246E+002	-1.4176323E+000	-1.4178878E+000	-8.931207099357482E+001	-2.1217051E+000	10	1.2663449E-001	1.5875657E+001
2	0	0	1	1.287469967475772E+002	-1.4186318E+000	-1.4189314E+000	-8.942133588030970E+001	-2.1395679E+000	10	1.2688273E-001	1.5867929E+001
2	0	0	1	1.289470967425223E+002	-1.4196321E+000	-1.4198900E+000	-9.022557955736340E+001	-2.1575446E+000	10	1.2811041E-001	1.5737112E+001
2	0	0	0	1.291469967374724E+002	-1.4206320E+000	-1.4209173E+000	-9.084770846853439E+001	-2.1756525E+000	10	1.2908708E-001	1.5640651E+001
2	0	0	0	1.293469967324199E+002	-1.4216321E+000	-1.4219179E+000	-9.131641218289212E+001	-2.1938770E+000	10	1.2984444E-001	1.5571329E+001
2	0	0	0	1.295469967273675E+002	-1.4226320E+000	-1.4228784E+000	-9.158649528702392E+001	-2.2121701E+000	10	1.3031645E-001	1.5535897E+001
2	0	0	0	1.297469967223151E+002	-1.4236319E+000	-1.4238813E+000	-9.235209274129852E+001	-2.2305734E+000	10	1.3149841E-001	1.5417965E+001
2	0	0	0	1.299469967172627E+002	-1.4246320E+000	-1.4249065E+000	-9.271835837558865E+001	-2.2490866E+000	10	1.3211499E-001	1.5368116E+001
2	0	0	0	1.301469967122102E+002	-1.4256318E+000	-1.4259250E+000	-9.343336249695358E+001	-2.2677097E+000	10	1.3322897E-001	1.5261412E+001
2	0	0	0	1.303469967071578E+002	-1.4266318E+000	-1.4269226E+000	-9.371559814585015E+001	-2.2864327E+000	10	1.3372490E-001	1.5226094E+001
2	0	0	0	1.305469967021054E+002	-1.4276319E+000	-1.4279382E+000	-9.434170780917202E+001	-2.3052373E+000	10	1.3471413E-001	1.5135811E+001
2	0	0	0	1.307469966970530E+002	-1.4286319E+000	-1.4289039E+000	-9.519384423999804E+001	-2.3241990E+000	10	1.3602287E-001	1.5010466E+001
2	0	0	0	1.309469966920005E+002	-1.4296318E+000	-1.4299216E+000	-9.575077410728227E+001	-2.3433003E+000	10	1.3691610E-001	1.4933786E+001
2	0	0	0	1.311469966869481E+002	-1.4306318E+000	-1.4308704E+000	-9.632462425458993E+001	-2.3625143E+000	10	1.3782805E-001	1.4854669E+001
2	0	0	0	1.313469966818957E+002	-1.4316317E+000	-1.4319272E+000	-9.736459669612714E+001	-2.3818977E+000	10	1.3941902E-001	1.4706857E+001
2	0	0	0	1.315469966768433E+002	-1.4326317E+000	-1.4329122E+000	-9.748999952567169E+001	-2.4013851E+000	10	1.3969462E-001	1.4698043E+001
2	0	0	0	1.317469966717908E+002	-1.4336318E+000	-1.4338895E+000	-9.872412517606017E+001	-2.4210181E+000	10	1.4155948E-001	1.4524206E+001
2	0	0	0	1.319469966667384E+002	-1.4346318E+000	-1.4349010E+000	-9.884186795509345E+001	-2.4407833E+000	10	1.4182830E-001	1.4517138E+001
2	0	0	0	1.321469966616860E+002	-1.4356316E+000	-1.4359027E+000	-9.934741595326659E+001	-2.4606006E+000	10	1.4265323E-001	1.4453347E+001
2	0	0	0	1.323469966566336E+002	-1.4366317E+000	-1.4369043E+000	-9.958997536732795E+001	-2.4805024E+000	10	1.4310126E-001	1.4428203E+001
2	0	0	0	1.325469966515811E+002	-1.4376315E+000	-1.4378735E+000	-1.009071924756718E+002	-2.5005629E+000	10	1.4509177E-001	1.4249465E+001
2	0	0	0	1.327469966465287E+002	-1.4386315E+000	-1.4389175E+000	-1.011222891029047E+002	-2.5207732E+000	10	1.4550664E-001	1.4229479E+001
2	0	0	0	1.329469966414763E+002	-1.4396316E+000	-1.4399035E+000	-1.013878376738012E+002	-2.5410287E+000	10	1.4598870E-001	1.4201935E+001
2	0	0	0	1.331469966364239E+002	-1.4406316E+000	-1.4409223E+000	-1.025211882396624E+002	-2.5614247E+000	10	1.4772506E-001	1.4054873E+001
2	0	0	0	1.333469966313714E+002	-1.4416316E+000	-1.4418572E+000	-1.034501454240881E+002	-2.5820329E+000	10	1.4916034E-001	1.3937701E+001
2	0	0	0	1.335469966263190E+002	-1.4426316E+000	-1.4428663E+000	-1.036460141584182E+002	-2.6027482E+000	10	1.4954734E-001	1.3921098E+001
2	0	0	0	1.337469966212666E+002	-1.4436314E+000	-1.4439094E+000	-1.042391077807156E+002	-2.6235487E+000	10	1.5051183E-001	1.3851897E+001
2	0	0	0	1.339469966162142E+002	-1.4446315E+000	-1.4448966E+000	-1.048874975883500E+002	-2.6444597E+000	10	1.5155159E-001	1.3775680E+001
2	0	0	0	1.341469966111617E+002	-1.4456315E+000	-1.4458994E+000	-1.055323202020729E+002	-2.6655090E+000	10	1.5258911E-001	1.3701010E+001
2	0	0	0	1.343469966061093E+002	-1.4466313E+000	-1.4468607E+000	-1.061345340389244E+002	-2.6866870E+000	10	1.5356189E-001	1.3632327E+001
2	0	0	0	1.345469966010569E+002	-1.4476314E+000	-1.4478765E+000	-1.063625077271413E+002	-2.7079387E+000	10	1.5399978E-001	1.3612659E+001
2	0	0	0	1.347469965960045E+002	-1.4486314E+000	-1.4488834E+000	-1.073665729639481E+002	-2.7293246E+000	10	1.5556164E-001	1.3494735E+001
2	0	0	0	1.349469965909520E+002	-1.4496313E+000	-1.4499031E+000	-1.081471674858581E+002	-2.7508759E+000	10	1.5680292E-001	1.3406760E+001
2	0	0	0	1.351469965858996E+002	-1.4506313E+000	-1.4508922E+000	-1.088890725771589E+002	-2.7725840E+000	10	1.5798631E-001	1.3324498E+001
2	0	0	0	1.353469965808472E+002	-1.4516313E+000	-1.4518696E+000	-1.092342095191243E+002	-2.7943995E+000	10	1.5859383E-001	1.3291346E+001
2	0	0	0	1.355569965755421E+002	-1.4526813E+000	-1.4529508E+000	-1.101011850867958E+002	-2.8174403E+000	10	1.5997161E-001	1.3196505E+001
2	0	0	0	1.357669965702371E+002	-1.4537313E+000	-1.4539983E+000	-1.106452204062016E+002	-2.8406215E+000	9	1.6087796E-001	1.3141086E+001
2	0	0	0	1.359669965651847E+002	-1.4547313E+000	-1.4549801E+000	-1.108166666539080E+002	-2.8627720E+000	9	1.6123605E-001	1.3129615E+001
2	0	0	0	1.361669965601322E+002	-1.4557312E+000	-1.4559807E+000	-1.120598500169590E+002	-2.8850589E+000	9	1.6315697E-001	1.2992885E+001
2	0	0	0	1.363669965550798E+002	-1.4567312E+000	-1.4570228E+000	-1.123753444905182E+002	-2.9075098E+000	9	1.6373344E-001	1.2965680E+001
2	0	0	0	1.365669965500274E+002	-1.4577312E+000	-1.4580022E+000	-1.132051203515794E+002	-2.9300711E+000	9	1.6505332E-001	1.2879295E+001
2	0	0	0	1.367669965449750E+002	-1.4587311E+000	-1.4589808E+000	-1.136014202954818E+002	-2.9527559E+000	9	1.6574229E-001	1.2842980E+001
2	0	0	0	1.369669965399225E+002	-1.4597311E+000	-1.4599847E+000	-1.145415155957890E+002	-2.9755757E+000	9	1.6722886E-001	1.2746336E+001
2	0	0	1	1.371668965348726E+002	-1.4607307E+000	-1.4610168E+000	-1.151309088058106E+002	-2.9985430E+000	9	1.6820818E-001	1.2690048E+001
2	0	0	1	1.373669965298177E+002	-1.4617313E+000	-1.4620067E+000	-1.157184941780577E+002	-3.0216508E+000	9	1.6918121E-001	1.2634166E+001
2	0	0	1	1.375668965247678E+002	-1.4627311E+000	-1.4629953E+000	-1.166962612556640E+002	-3.0448935E+000	9	1.7072608E-001	1.2536779E+001
2	0	0	1	1.377668965197154E+002	-1.4637314E+000	-1.4639657E+000	-1.170200764891924E+002	-3.0682633E+000	9	1.7131338E-001	1.2510380E+001
2	0	0	1	1.379668965146629E+002	-1.4647315E+000	-1.4649761E+000	-1.179207674927678E+002	-3.0917716E+000	9	1.7275110E-001	1.2423393E+001
2	0	0	1	1.381667965096131E+002	-1.4657310E+000	-1.4660027E+000	-1.179072793962728E+002	-3.1153448E+000	9	1.7285240E-001	1.2433521E+001
2	0	0	1	1.383667965045606E+002	-1.4667311E+000	-1.4670204E+000	-1.191394605247342E+002	-3.1390564E+000	9	1.7478001E-001	1.2313472E+001
2	0	0	1	1.385667964995082E+002	-1.4677309E+000	-1.4679884E+000	-1.197177078296809E+002	-3.1629543E+000	9	1.7574421E-001	1.2262082E+001
2	0	0	1	1.387667964944558E+002	-1.4687309E+000	-1.4690421E+000	-1.202614957653743E+002	-3.1869504E+000	9	1.7666920E-001	1.2215398E+001
2	0	0	1	1.389667964894034E+002	-1.4697310E+000	-1.4700196E+000	-1.210010574042387E+002	-3.2110822E+000	9	1.7787392E-001	1.2148816E+001
2	0	0	1	1.391667964843509E+002	-1.4707308E+000	-1.4710095E+000	-1.216129579911703E+002	-3.2353568E+000	9	1.7889382E-001	1.2095829E+001
2	0	0	1	1.393667964792985E+002	-1.4717308E+000	-1.4720241E+000	-1.222699272000055E+002	-3.2597535E+000	9	1.7998427E-001	1.2039134E+001
2	0	0	1	1.395667964742461E+002	-1.4727309E+000	-1.4730226E+000	-1.223935874638375E+002	-3.2842221E+000	9	1.8028852E-001	1.2035129E+001
2	0	0	1	1.397667964691937E+002	-1.4737308E+000	-1.4739619E+000	-1.236828428212211E+002	-3.3088329E+000	9	1.8230380E-001	1.1917271E+001
2	0	0	1	1.399667964641412E+002	-1.4747308E+000	-1.4749839E+000	-1.240116612148931E+002	-3.3336127E+000	9	1.8291521E-001	1.1893913E+001
2	0	0	1	1.401667964590888E+002	-1.4757308E+000	-1.4759698E+000	-1.245406786243923E+002	-3.3584673E+000	9	1.8381828E-001	1.1851307E+001
2	0	0	1	1.403667964540364E+002	-1.4767307E+000	-1.4770384E+000	-1.253712050574163E+002	-3.3834641E+000	9	1.8517809E-001	1.1781321E+001
2	0	0	1	1.405667964489840E+002	-1.4777308E+000	-1.4779882E+000	-1.262381665149786E+002	-3.4086366E+000	9	1.8657853E-001	1.1707935E+001
2	0	0	1	1.407667964439315E+002	-1.4787306E+000	-1.4789792E+000	-1.270624704869156E+002	-3.4339788E+000	9	1.8792276E-001	1.1639780E+001
2	0	0	1	1.409667964388791E+002	-1.4797306E+000	-1.4800076E+000	-1.271242100322056E+002	-3.4594023E+000	9	1.8814480E-001	1.1642217E+001
2	0	0	1	1.411667964338267E+002	-1.4807307E+000	-1.4809860E+000	-1.283938852286392E+002	-3.4849739E+000	9	1.9014955E-001	1.1534708E+001
2	0	0	1	1.413667964287743E+002	-1.4817307E+000	-1.4819623E+000	-1.284683634915859E+002	-3.5106604E+000	9	1.9038527E-001	1.1535621E+001
2	0	0	1	1.415667964237218E+002	-1.4827307E+000	-1.4829981E+000	-1.292055508879577E+002	-3.5364416E+000	9	1.9161159E-001	1.1477820E+001
2	0	0	1	1.417667964186694E+002	-1.4837306E+000	-1.4839947E+000	-1.299397387223444E+002	-3.5623660E+000	9	1.9282989E-001	1.1420638E+001
2	0	0	1	1.419667964136170E+002	-1.4847305E+000	-1.4849932E+000	-1.306986957082945E+002	-3.5884407E+000	9	1.9408667E-001	1.1361959E+001
2	0	0	1	1.421667964085646E+002	-1.4857305E+000	-1.4859631E+000	-1.309050878537753E+002	-3.6146073E+000	9	1.9452013E-001	1.1351454E+001
2	0	0	1	1.423667964035121E+002	-1.4867306E+000	-1.4869703E+000	-1.322120198089787E+002	-3.6409183E+000	9	1.9659534E-001	1.1246861E+001
2	0	0	1	1.425667963984597E+002	-1.4877306E+000	-1.4879953E+000	-1.326025341373456E+002	-3.6674042E+000	9	1.9731194E-001	1.1221469E+001
2	0	0	1	1.427667963934073E+002	-1.4887304E+000	-1.4890045E+000	-1.333501744021640E+002	-3.6940024E+000	9	1.9855902E-001	1.1166123E+001
2	0	0	1	1.429667963883549E+002	-1.4897305E+000	-1.4899788E+000	-1.337798039983459E+002	-3.7207232E+000	9	1.9932906E-001	1.1137547E+001
2	0	0	1	1.431667963833024E+002	-1.4907305E+000	-1.4909319E+000	-1.343945440402651E+002	-3.7475379E+000	9	2.0037311E-001	1.1093694E+001
2	0	0	1	1.433667963782500E+002	-1.4917303E+000	-1.4920015E+000	-1.349667503449912E+002	-3.7744908E+000	9	2.0137060E-001	1.1054585E+001
2	0	0	1	1.435667963731976E+002	-1.4927304E+000	-1.4929947E+000	-1.357331364581914E+002	-3.8015587E+000	9	2.0264885E-001	1.0999486E+001
2	0	0	1	1.437667963681452E+002	-1.4937304E+000	-1.4940019E+000	-1.358667778503871E+002	-3.8287292E+000	9	2.0298521E-001	1.0996079E+001
2	0	0	1	1.439667963630927E+002	-1.4947304E+000	-1.4950089E+000	-1.370006431105994E+002	-3.8560288E+000	9	2.0481719E-001	1.0912423E+001
2	0	0	1	1.441667963580403E+002	-1.4957304E+000	-1.4959778E+000	-1.372455728827151E+002	-3.8834572E+000	9	2.0531632E-001	1.0900007E+001
2	0	0	1	1.443667963529879E+002	-1.4967302E+000	-1.4969848E+000	-1.381057091862169E+002	-3.9109883E+000	9	2.0674215E-001	1.0839413E+001
2	0	0	1	1.445667963479355E+002	-1.4977303E+000	-1.4980048E+000	-1.390063170100013E+002	-3.9387069E+000	9	2.0823213E-001	1.0776524E+001
2	0	0	1	1.447667963428830E+002	-1.4987303E+000	-1.4989756E+000	-1.393411885670255E+002	-3.9665446E+000	9	2.0886904E-001	1.0757592E+001
2	0	0	1	1.449367963385885E+002	-1.4995801E+000	-1.4998311E+000	-1.401431485682124E+002	-3.9902925E+000	9	2.1019106E-001	1.0702136E+001
2	0	0	1	1.450107963367191E+002	-1.4999799E+000	-1.5002412E+000	-1.401435354132404E+002	-4.0006661E+000	9	2.1024910E-001	1.0705033E+001